,theta i [rad],r orb [AU],v orb [km s-1],ang orb [rad],r L1 [AU],v i [km s-1],ang i [rad],a p [AU],e p,theta p i [rad],flag impact,v imp [km s-1],ang imp [rad]
0,0.0,0.69705,67.2064665488,1.57079632679,0.330732435942,6.72064665488,1.57079632679,0.166769970155,0.98316540823,3.14159265359,1.0,613.520735068,0.893497047762
1,0.033139835809,0.697195445997,67.1977725549,1.5833871691,0.330801446355,6.75978138341,1.69628541928,0.166821607367,0.983234351565,3.14374403129,1.0,613.522077306,0.891162573034
2,0.06625204321,0.69763150312,67.171722354,1.5959654578,0.33100834433,6.87567930624,1.81920628446,0.166976481792,0.983440053589,3.14586612472,1.0,613.526098053,0.884203748844
3,0.0993091496093,0.698357330935,67.1284109378,1.60851871145,0.331352731101,7.06406919808,1.93733172978,0.167234482145,0.983779151204,3.14792997883,1.0,613.532779493,0.872749883331
4,0.132283994306,0.699371535997,67.0679954564,1.62103459292,0.331833945514,7.31856717363,2.04901032793,0.167595424169,0.98424610813,3.14990728843,1.0,613.542092174,0.857002502009
5,0.165149877012,0.700672182583,66.9906934956,1.6335009782,0.33245106912,7.6315175873,2.15324548457,0.16805905241,0.98483331586,3.15177070163,1.0,613.55399537,0.837217445972
6,0.197880702197,0.702256807523,66.8967807135,1.64590602303,0.332499973445,7.99479782686,2.24963878935,0.168264981889,0.985561606215,3.15346862299,1.0,613.559261293,0.811470655837
7,0.230451113644,0.704122438781,66.7865878959,1.65823822515,0.333383300357,8.40044323942,2.33825619325,0.168931048779,0.986357193053,3.15502405132,1.0,613.576205391,0.786184548555
8,0.26283661881,0.706265617488,66.6604974891,1.67048648172,0.334398038623,8.84104882513,2.41947544144,0.169698343438,0.987239110864,3.15639228532,1.0,613.595559183,0.816175322697
9,0.295013702782,0.708682423154,66.5189396804,1.68264014178,0.334832940189,9.30997406428,2.49385211997,0.170199755418,0.988217845105,3.15751814326,1.0,613.608111903,0.850856274538
10,0.326959928228,0.711368501523,66.3623881097,1.69468905227,0.336102038277,9.80140563588,2.56201916144,0.171165150278,0.989226508821,3.158448901,1.0,613.63207249,0.88614025929
11,0.358654022395,0.714319094723,66.1913552918,1.70662359801,0.336781078219,10.3103326978,2.62461989845,0.171857388126,0.990295945365,3.159098399,1.0,613.649087181,0.925349083781
12,0.390075949854,0.717529073257,66.0063878345,1.71843473492,0.338294491522,10.8324768006,2.6822681512,0.173017269184,0.991366486211,3.15952600448,1.0,613.677289969,0.964967827403
13,0.421206970889,0.720992969345,65.8080615368,1.73011401669,0.33920590503,11.3642041413,2.73552750466,0.173895382161,0.99245915887,3.15964425506,1.0,613.698390419,1.00786595899
14,0.452029685545,0.724705011211,65.5969764473,1.74165361459,0.340226880678,11.9024362499,2.78490301902,0.174862534714,0.99353637905,3.15948189409,1.0,613.721384358,1.05230722604
15,0.482528063549,0.728659157823,65.3737519596,1.75304633091,0.342083231791,12.44456728,2.83084037524,0.176304558167,0.994569773581,3.15906970446,1.0,613.755198247,1.09708630931
16,0.512687461335,0.732849133806,65.1390220084,1.76428560616,0.343316714883,12.9883912579,2.87372908593,0.177449360459,0.995567192839,3.15832651766,1.0,613.78164999,1.14440029809
17,0.542494625117,0.737268463872,64.8934304413,1.77536552008,0.344649025206,13.5320399278,2.91390764193,0.178678548903,0.996498984673,3.15728790216,1.0,613.809672958,1.19296939419
18,0.571937683345,0.741910506763,64.6376266,1.78628078745,0.346076376087,14.0739305787,2.9516693324,0.179990446298,0.99734964928,3.1559527694,1.0,613.839157892,1.24274400889
19,0.601006127724,0.746768488144,64.37226117,1.79702674876,0.347594945499,14.612722613,2.98726802809,0.181383368598,0.998104528829,3.15432161141,1.0,613.869995509,1.29369497172
20,0.62969078467,0.751835532281,64.0979823255,1.80759935648,0.349200891443,15.1472815294,3.02092356679,0.182855629636,0.998749913496,3.15239634245,1.0,613.902077225,1.34581276205
21,0.657983778144,0.757104692236,63.8154321981,1.81799515723,0.350890366451,15.676649046,3.05282658285,0.184405545591,0.999273124616,3.15018013861,1.0,613.935295824,1.39910727673
22,0.685878485672,0.762568978517,63.5252436807,1.82821127095,0.353422863497,16.2000182582,3.0831427396,0.186456309908,0.999661885781,3.14769045337,1.0,613.978397403,1.45335507176
23,0.713369487205,0.768221385757,63.2280375882,1.83824536674,0.354504566994,16.7167128614,3.11201638265,0.187731643531,0.999907814664,3.14489299007,1.0,614.004725118,1.5093660374
24,0.740452509964,0.77405491767,62.9244201604,1.84809563689,0.356421687416,17.2261697018,3.13957366565,0.189504505657,0.999999543094,3.14183329922,1.0,614.040733186,1.5664540377
25,0.767124369418,0.780062610085,62.6149809083,1.85776076912,0.358407148785,17.7279240161,3.16592520804,0.19134838979,0.999929624267,3.13850489297,1.0,614.077473717,1.51662157129
26,0.793382906449,0.786237551769,62.300290808,1.86723991722,0.360457259583,18.2215968373,3.19116834607,0.193261680153,0.999691072059,3.13491498753,1.0,614.1148538,1.45654664981
27,0.819226923804,0.792572903516,61.9809008021,1.87653267127,0.362568388916,18.7068842125,3.2153890377,0.195242783554,0.999278028711,3.13107120865,1.0,614.152784401,1.39474888465
28,0.844656120882,0.799061915122,61.6573406127,1.88563902728,0.364736973896,19.1835478786,3.23866347203,0.197290131584,0.998685731454,3.12698148252,1.0,614.191180548,1.3310183001
29,0.869671028887,0.805697940592,61.3301178299,1.89455935691,0.366959526129,19.6514071718,3.26105943053,0.199402182549,0.997910470209,3.12265393766,1.0,614.229961474,1.2650870488
30,0.894272945525,0.812474451254,60.9997172731,1.90329437717,0.368419349414,20.1103319388,3.28263743809,0.20109272643,0.996955650661,3.118148724,1.0,614.260414099,1.19746969655
31,0.918463871665,0.819385047321,60.6666005789,1.91184512104,0.37073277782,20.5602363266,3.30345173905,0.20332086866,0.995809565671,3.1133810751,1.0,614.29977495,1.12618544601
32,0.942246449472,0.826423467775,60.3312060027,1.92021290871,0.373090077704,21.0010733033,3.32355112552,0.205608967902,0.994475543662,3.10840094614,1.0,614.339304589,1.05132775309
33,0.965623901755,0.833583598435,59.9939484228,1.92839931963,0.374653693064,21.4328297923,3.34297964127,0.207443850021,0.992967566839,3.1033023631,1.0,614.370372539,0.97358278288
34,0.988599974464,0.840859478792,59.6552194986,1.93640616594,0.377082132311,21.8555223665,3.36177718218,0.209837949343,0.991261649746,3.09793404817,1.0,614.410089828,0.889059168661
35,1.01117888167,0.848245307464,59.3153879757,1.94423546703,0.379545201324,22.2691934144,3.37998000912,0.21228753315,0.989370237245,3.09237784348,1.0,614.449797802,0.797260005801
36,1.03336525257,0.855735446154,58.9748001257,1.95188942525,0.381183460699,22.6739077092,3.39762118656,0.214249897739,0.987320489749,3.08676612473,1.0,614.480951062,0.872828080988
37,1.05516408219,0.863324422715,58.6337802775,1.95937040325,0.383699747139,23.0697493599,3.41473095963,0.21679594096,0.985069175669,3.0808708747,1.0,614.520527611,0.989563628871
38,1.07658068494,0.871006933148,58.2926314371,1.96668090264,0.38537043861,23.4568190865,3.43133707865,0.218830832078,0.982674672691,3.07496378422,1.0,614.55149471,1.12889100887
39,1.09762065045,0.878777842401,57.951635987,1.97382354385,0.387928961187,23.8352317729,3.44746507848,0.221467085628,0.980077227155,3.06876023592,1.0,614.590764958,1.34427314559
40,1.11828980354,0.88663218476,57.6110564213,1.9808010478,0.389621154004,24.2051143018,3.46313852117,0.223567252203,0.97735477327,3.06258953943,0.0,0.0,0.0
41,1.13859416595,0.894565163012,57.271136141,1.98761621853,0.392211756903,24.5666036006,3.47837920555,0.226287701992,0.974428289193,3.05610624833,0.0,0.0,0.0
42,1.15853992178,0.902572147314,56.9321002638,1.99427192746,0.393915375365,24.9198449129,3.49320735013,0.228446122439,0.971397484978,3.04970143866,0.0,0.0,0.0
43,1.17813338568,0.910648673445,56.5941564512,2.00077109893,0.396528705421,25.2649902592,3.50764175266,0.231244978542,0.968161533452,3.0429646787,0.0,0.0,0.0
44,1.19738097301,0.918790440285,56.2574957576,2.00711669678,0.398234498923,25.6021970548,3.52169992915,0.233454848879,0.96484397272,3.03635294867,0.0,0.0,0.0
45,1.21628917335,0.926993307176,55.9222934654,2.01331171239,0.39993405324,25.9316268958,3.53539823638,0.235681774815,0.961394878797,3.02965632115,0.0,0.0,0.0
46,1.23486452633,0.935253290903,55.5887099154,2.01935915374,0.402561480369,26.2534444831,3.54875197966,0.238581252086,0.957738439924,3.02259302088,0.0,0.0,0.0
47,1.25311359916,0.943566562085,55.2568913367,2.02526203545,0.40425074313,26.5678166603,3.5617755073,0.240849535544,0.954037447817,3.01572660025,0.0,0.0,0.0
48,1.27104296705,0.951929441637,54.9269706467,2.03102336998,0.406880756156,26.8749115775,3.57448229479,0.243813537078,0.950126909381,3.00846628412,0.0,0.0,0.0
49,1.28865919555,0.96033839701,54.5990682316,2.03664615975,0.408552374938,27.1748979562,3.58688501942,0.246116856698,0.946197769387,3.00145187971,0.0,0.0,0.0
50,1.30596882421,0.968790037986,54.2732927144,2.04213338994,0.410208398314,27.4679444356,3.59899562616,0.248428548494,0.942167294023,2.99438141042,0.0,0.0,0.0
51,1.32297835264,0.977281112683,53.9497416845,2.04748802238,0.4118471995,27.7542190134,3.61082538696,0.250746844878,0.938041558806,2.98726014303,0.0,0.0,0.0
52,1.33969422824,0.985808503453,53.6285024,2.05271299008,0.414454029347,28.03388856,3.62238495371,0.253809755955,0.933699771967,2.97968211879,0.0,0.0,0.0
53,1.35612283468,0.994369222438,53.3096524724,2.05781119227,0.416062401261,28.3071183895,3.62353063278,0.256150416182,0.932146669004,2.97528889736,0.0,0.0,0.0
54,1.37227048262,1.00296040743,52.9932605087,2.0627854904,0.417649182568,28.5740719025,3.62243034364,0.258492734141,0.931221015513,2.97154690439,0.0,0.0,0.0
55,1.38814340146,1.01157931771,52.6793867243,2.06763870452,0.420225646398,28.8349102802,3.6213293955,0.261619503406,0.930198754903,2.96739526726,0.0,0.0,0.0
56,1.40374773178,1.02022332961,52.3680835368,2.07237361015,0.421774013055,29.0897922181,3.62022473923,0.263975187136,0.929343094212,2.96372281704,0.0,0.0,0.0
57,1.41908951951,1.02888993242,52.0593961171,2.0769929358,0.423297063217,29.3388737129,3.61911365708,0.266327739256,0.928524079292,2.96009557429,0.0,0.0,0.0
58,1.43417471087,1.0375767244,51.7533629115,2.08149936083,0.424793677899,29.5823078859,3.61799372973,0.268675522743,0.92774223331,2.95651635475,0.0,0.0,0.0
59,1.44900914777,1.04628140845,51.4500161467,2.08589551366,0.426262799992,29.8202448318,3.61686280685,0.271016918047,0.926997985866,2.95298786507,0.0,0.0,0.0
60,1.46359856462,1.05500178829,51.1493822919,2.09018397044,0.428759489496,30.0528315085,3.61571898044,0.274213638991,0.926155210047,2.94900375897,0.0,0.0,0.0
61,1.4779485854,1.06373576453,50.8514825021,2.09436725394,0.430179432275,30.2802116467,3.614560561,0.276553682006,0.925486397267,2.9455725188,0.0,0.0,0.0
62,1.49206472182,1.07248133093,50.5563330282,2.09844783289,0.431569068089,30.5025256878,3.61338605599,0.278882780843,0.92485603785,2.94219952027,0.0,0.0,0.0
63,1.5059523714,1.08123657056,50.2639456116,2.10242812134,0.432927559783,30.7199107356,3.61219415048,0.281199378442,0.924264225248,2.9388870397,0.0,0.0,0.0
64,1.51961681667,1.08999965227,49.9743278454,2.10631047841,0.434254119736,30.9325005325,3.61098368963,0.283501933994,0.923710979032,2.93563724428,0.0,0.0,0.0
65,1.53306322474,1.09876882731,49.6874835116,2.11009720831,0.436647876339,31.1404254514,3.60975366299,0.286736756768,0.923057474916,2.93188419904,0.0,0.0,0.0
66,1.54629664685,1.10754242574,49.4034129067,2.11379056026,0.437917179381,31.3438124945,3.60850319022,0.289023902212,0.922580892176,2.92875427548,0.0,0.0,0.0
67,1.55932201875,1.11631885331,49.1221131339,2.11739272889,0.439152465863,31.5427853123,3.60723150832,0.291292655968,0.922142613666,2.92569298021,0.0,0.0,0.0
68,1.57214416119,1.12509658821,48.8435783833,2.12090585457,0.440353123174,31.7374642279,3.60593795995,0.293541536186,0.921742401935,2.92270205975,0.0,0.0,0.0
69,1.58476778088,1.13387417816,48.5678001861,2.12433202395,0.441518577958,31.9279662739,3.60462198301,0.295769077325,0.921379965465,2.91978315643,0.0,0.0,0.0
70,1.59719747124,1.14265023729,48.2947676615,2.12767327053,0.443792088239,32.1144052306,3.60328310113,0.299011371341,0.920916082721,2.91631274452,0.0,0.0,0.0
71,1.60943771383,1.15142344338,48.0244677368,2.13093157541,0.444894347587,32.296891677,3.6019209151,0.301210028436,0.920628273657,2.91353133284,0.0,0.0,0.0
72,1.62149287994,1.16019253524,47.7568853526,2.13410886809,0.44595989754,32.4755330462,3.60053509512,0.303383194956,0.920377149687,2.91082637715,0.0,0.0,0.0
73,1.63336723187,1.16895630991,47.4920036623,2.13720702723,0.446988302812,32.6504336793,3.59912537377,0.305529465714,0.920162237639,2.90819912511,0.0,0.0,0.0
74,1.64506492485,1.17771362026,47.2298042062,2.14022788164,0.447979158991,32.8216948905,3.59769153968,0.307647453022,0.919983028194,2.90565072852,0.0,0.0,0.0
75,1.65659000885,1.18646337248,46.9702670798,2.14317321118,0.448932091038,32.9894150298,3.59623343174,0.30973578707,0.919838979157,2.90318224532,0.0,0.0,0.0
76,1.66794643058,1.19520452396,46.7133710834,2.14604474776,0.451043152841,33.1536895529,3.59475093391,0.312943802701,0.919592986094,2.90010493521,0.0,0.0,0.0
77,1.6791380353,1.20393608079,46.4590938702,2.14884417633,0.451927962427,33.3146110853,3.59324397048,0.314987771798,0.919518065986,2.8977888331,0.0,0.0,0.0
78,1.69016856905,1.21265709581,46.2074120735,2.15157313591,0.452773874793,33.4722694947,3.59171250184,0.3169981919,0.919476568705,2.89555542831,0.0,0.0,0.0
79,1.70104168065,1.22136666647,45.9583014298,2.15423322063,0.453580618075,33.6267519608,3.59015652053,0.31897376121,0.919467847892,2.89340542887,0.0,0.0,0.0
80,1.711760924,1.23006393304,45.7117368876,2.15682598082,0.454347943443,33.778143047,3.58857604779,0.320913198237,0.919491238701,2.89133945949,0.0,0.0,0.0
81,1.72232975999,1.23874807647,45.4676927156,2.15935292401,0.45507562391,33.926524769,3.58697113036,0.322815242313,0.919546060305,2.88935806393,0.0,0.0,0.0
82,1.73275155887,1.2474183168,45.2261425946,2.16181551603,0.457012120297,34.0719766669,3.58534183758,0.325947505811,0.919499683005,2.88671262692,0.0,0.0,0.0
83,1.74302960228,1.25607391133,44.987059706,2.16421518204,0.457668576544,34.2145758745,3.58368825881,0.327790629665,0.919616126594,2.88489241663,0.0,0.0,0.0
84,1.75316708563,1.26471415314,44.75041681,2.16655330762,0.458284812503,34.3543971906,3.582010501,0.329592760607,0.919761924429,2.88315812369,0.0,0.0,0.0
85,1.76316711999,1.27333836926,44.5161863239,2.16883123976,0.45886067788,34.4915131442,3.58030868665,0.331352718385,0.91993635139,2.88150999402,0.0,0.0,0.0
86,1.7730327344,1.28194591937,44.2843403868,2.17105028793,0.459396039457,34.6259940642,3.57858295177,0.333069346794,0.920138676977,2.87994820395,0.0,0.0,0.0
87,1.78276687795,1.2905361943,44.0548509224,2.17321172507,0.461182608262,34.7579081454,3.57683344418,0.336112082958,0.920241448449,2.87767893843,0.0,0.0,0.0
88,1.79237242187,1.29910861461,43.827689697,2.17531678859,0.461645207697,34.8873215129,3.57506032188,0.337758514372,0.920498401557,2.87628171236,0.0,0.0,0.0
89,1.80185216168,1.30766262941,43.6028283687,2.17736668141,0.462066979476,35.0142982874,3.57326375164,0.339358302174,0.920781071791,2.87497114885,0.0,0.0,0.0
90,1.81120881903,1.31619771492,43.3802385392,2.17936257284,0.462447850115,35.1389006452,3.5714439077,0.340910383157,0.921088720958,2.8737471709,0.0,0.0,0.0
91,1.8204450439,1.32471337339,43.1598917943,2.18130559961,0.464113798822,35.2611888809,3.56960097057,0.343867581296,0.921298804511,2.87178313089,0.0,0.0,0.0
92,1.82956341642,1.33320913193,42.9417597449,2.18319686673,0.464421203463,35.3812214659,3.56773512598,0.345341073173,0.921655340358,2.87072425101,0.0,0.0,0.0
93,1.83856644898,1.34168454144,42.72581406,2.18503744849,0.464687543245,35.4990551079,3.56584656391,0.34676379961,0.922034674539,2.86975158032,0.0,0.0,0.0
94,1.84745658787,1.35013917549,42.512026504,2.18682838924,0.464912793539,35.6147448045,3.56393547775,0.348134801175,0.922436082688,2.86886482288,0.0,0.0,0.0
95,1.8562362153,1.35857262937,42.3003689629,2.18857070435,0.46645687313,35.7283439005,3.56200206351,0.350990868484,0.922742329163,2.86720764453,0.0,0.0,0.0
96,1.86490765118,1.36698451913,42.090813472,2.19026538099,0.466608333753,35.8399041399,3.56004651908,0.352275483882,0.923186931568,2.86648481141,0.0,0.0,0.0
97,1.87347315479,1.37537448064,41.8833322403,2.19191337902,0.466718672018,35.9494757181,3.55806904366,0.353505601941,0.923651484442,2.8658469139,0.0,0.0,0.0
98,1.88193492669,1.38374216881,41.6778976702,2.19351563174,0.468173030505,36.0571073326,3.55606983714,0.3562822397,0.924023076727,2.86441742326,0.0,0.0,0.0
99,1.89029511016,1.39208725661,41.4744823804,2.19507304671,0.468209532184,36.1628462306,3.55404909963,0.357420545871,0.924526670642,2.86394169908,0.0,0.0,0.0
100,1.89855579299,1.40040943438,41.2730592206,2.1965865065,0.468204960488,36.2667382571,3.55200703097,0.358501809067,0.925048159763,2.86354954305,0.0,0.0,0.0
101,1.90671900904,1.40870840904,41.0736012878,2.19805686941,0.469569474135,36.3688279002,3.54994383036,0.361191211944,0.925479047214,2.86234608533,0.0,0.0,0.0
102,1.91478673976,1.41698390333,40.8760819404,2.19948497024,0.469491167634,36.4691583358,3.54785969595,0.362175616528,0.92603555972,2.86211362899,0.0,0.0,0.0
103,1.92276091579,1.42523565523,40.6804748082,2.20087162094,0.469371906954,36.5677714708,3.54575482457,0.363100675891,0.926607997169,2.86196303142,0.0,0.0,0.0
104,1.93064341826,1.43346341712,40.4867538065,2.20221761134,0.470646651949,36.6647079835,3.5436294114,0.365695417019,0.927092309797,2.86098295381,0.0,0.0,0.0
105,1.93843608037,1.44166695528,40.2948931425,2.20352370975,0.470453885802,36.7600073649,3.54148364974,0.366518980529,0.927695918794,2.86098894894,0.0,0.0,0.0
106,1.94614068871,1.44984604923,40.1048673246,2.20479066366,0.470220344806,36.8537079569,3.53931773077,0.367281155766,0.928313579137,2.86107479585,0.0,0.0,0.0
107,1.95375898459,1.45800049117,39.916651169,2.20601920033,0.471405568734,36.94584699,3.53713184337,0.369774225873,0.928845670678,2.86031456987,0.0,0.0,0.0
108,1.96129266545,1.46613008546,39.730219804,2.2072100274,0.471098860824,37.0364606206,3.53492617392,0.370430706789,0.929490837486,2.86055335189,0.0,0.0,0.0
109,1.96874338596,1.47423464798,39.5455486776,2.20836383347,0.470751608859,37.1255839641,3.53270090621,0.371024030271,0.930148286053,2.86086972186,0.0,0.0,0.0
110,1.9761127594,1.48231400573,39.3626135592,2.2094812887,0.471847706079,37.2132511306,3.53045622122,0.373408876597,0.930722764323,2.86032505646,0.0,0.0,0.0
111,1.98340235879,1.49036799631,39.1813905434,2.21056304529,0.471427719117,37.2994952568,3.52819229711,0.373892773538,0.931404254047,2.86079022912,0.0,0.0,0.0
112,1.99061371806,1.49839646746,39.0018560523,2.2116097381,0.472467359178,37.384348538,3.52590930905,0.376210454682,0.932004784443,2.86038532217,0.0,0.0,0.0
113,1.99774833317,1.50639927658,38.8239868372,2.21262198509,0.471974953108,37.4678422582,3.52360742918,0.376582594648,0.932708110088,2.86099645147,0.0,0.0,0.0
114,2.00480766327,1.51437629044,38.6477599787,2.21360038786,0.472958365573,37.5500068207,3.52128682651,0.378830541087,0.933332489281,2.86072920921,0.0,0.0,0.0
115,2.01179313162,1.52232738458,38.4731528888,2.21454553216,0.472393887711,37.630871775,3.51894766692,0.379088791421,0.934055535145,2.86148328694,0.0,0.0,0.0
116,2.01870612674,1.53025244307,38.3001433098,2.21545798827,0.473321330849,37.7104658457,3.51659011308,0.381264559384,0.934701639815,2.86135146052,0.0,0.0,0.0
117,2.02554800336,1.53815135808,38.1287093139,2.21633831157,0.47268515671,37.7888169584,3.51421432444,0.381406991458,0.935442379891,2.86224533331,0.0,0.0,0.0
118,2.03232008339,1.54602402955,37.9588293022,2.21718704288,0.473556914588,37.8659522656,3.51182045718,0.3835082689,0.93610816762,2.86224653452,0.0,0.0,0.0
119,2.03902365684,1.55387036484,37.7904820037,2.21800470896,0.472849445001,37.9418981711,3.50940866424,0.383533163896,0.936864664946,2.86327691974,0.0,0.0,0.0
