,theta i [rad],r orb [AU],v orb [km s-1],ang orb [rad],r L1 [AU],v i [km s-1],ang i [rad],a p [AU],e p,theta p i [rad],flag impact,v imp [km s-1],ang imp [rad]
0,0.0,0.3636,98.2522284643,1.57079632679,0.172518922429,9.82522284643,1.57079632679,0.0870766016585,0.981231687306,3.14159265359,1.0,609.539191707,0.929613139069
1,0.0927745364303,0.364295317017,98.1478736023,1.61196842825,0.172848832605,10.4501292752,1.96771689879,0.0873535193026,0.981936052669,3.14931635586,1.0,609.565690372,0.942429961836
2,0.184846463138,0.366370055867,97.8381932271,1.65280679031,0.173466506445,12.1130358869,2.29383268118,0.0879952390992,0.98397728488,3.15605499644,1.0,609.626452088,0.981378831291
3,0.275547777603,0.369791332759,97.3330148228,1.69299429997,0.174346067323,14.4110325222,2.53796217827,0.0889885926748,0.987036673613,3.16091307996,1.0,609.718768728,1.0435862529
4,0.364275464726,0.374506738849,96.64769516,1.73224505382,0.175819483543,17.0252935737,2.72020358175,0.0905088289308,0.990623217967,3.16323388345,1.0,609.856101333,1.12427210921
5,0.450514342154,0.380447572021,95.8017831974,1.77031530196,0.17746603816,19.7610901923,2.86089881521,0.0923387621901,0.994223992208,3.16250316742,1.0,610.01537446,1.22116272386
6,0.533850653175,0.387532726234,94.8174813069,1.80700992589,0.179607263089,22.5053690628,2.97384720297,0.0946555787659,0.997285050974,3.15851553428,1.0,610.208135084,1.33060554346
7,0.61397634843,0.395672784463,93.7181247551,1.84218442841,0.181795607282,25.1917570619,3.06765155592,0.0972178458245,0.999336355225,3.15117784387,1.0,610.410552788,1.45129510991
8,0.690685378286,0.404773919888,92.5268517266,1.87574307998,0.184356493676,27.7809971564,3.14767853176,0.100212583727,0.999994537313,3.14061682678,1.0,610.633938506,1.55981681807
9,0.763864104415,0.414741319304,91.2655661048,1.90763424519,0.186820417772,30.2504821708,3.217371619,0.103367637747,0.999001644783,3.12703382133,1.0,610.85520042,1.41956691748
10,0.833478152997,0.425481968311,89.9542257252,1.93784401327,0.189103100738,32.5883603922,3.27902320213,0.106616382797,0.996225816387,3.11075797495,1.0,611.069272021,1.26906224089
11,0.899557792854,0.436906749457,88.6104355444,1.96638913873,0.191994060813,34.7899475236,3.33421934184,0.110460635606,0.991624193578,3.09195056054,1.0,611.306230441,1.10411697186
12,0.962183452977,0.448931888987,87.2492932869,1.99331006865,0.194132712542,36.8553801995,3.38409915547,0.114005891412,0.985301751669,3.07122806567,1.0,611.510520715,0.921857594664
13,1.02147244328,0.461479837142,85.8834232199,2.01866456653,0.196787201652,38.7880007783,3.42950959062,0.118094986964,0.977328380361,3.0485081318,1.0,611.730840079,0.866551775169
14,1.07756746539,0.474479690712,84.5231354374,2.04252221083,0.199006000283,40.5932134221,3.47110024753,0.122056097498,0.967942721951,3.02443175607,1.0,611.930118944,1.16504515835
15,1.13062712254,0.487867267878,83.1766577766,2.0649598649,0.201202520808,42.2776657865,3.50938307741,0.126168219271,0.957311383454,2.99907086475,0.0,0.0,0.0
16,1.18081838738,0.501584935329,81.8503999814,2.08605809423,0.203345248024,43.8486656889,3.54477101284,0.130400178547,0.945640252842,2.9726413124,0.0,0.0,0.0
17,1.22831083811,0.515581270873,80.5492219677,2.1058984367,0.204890659217,45.3137708658,3.57760365972,0.134276850905,0.933255454167,2.94586517076,0.0,0.0,0.0
18,1.27327240891,0.529810628004,79.2766882572,2.12456140073,0.20630264101,46.6805069751,3.60816485847,0.138144477274,0.920277885634,2.91858489787,0.0,0.0,0.0
19,1.31586637945,0.544232650661,78.0352986664,2.14212505743,0.208104981656,47.9561800473,3.63669501358,0.142474789524,0.906730369241,2.89027284169,0.0,0.0,0.0
20,1.35624934921,0.558811773909,76.8266907521,2.15866410315,0.20920481243,49.1477579091,3.66339998091,0.146244467098,0.893083556343,2.86243824301,0.0,0.0,0.0
21,1.3945699696,0.573516733617,75.6518132806,2.17424928267,0.210117245979,50.2618011599,3.68845763486,0.14989030273,0.879343663533,2.83463641697,0.0,0.0,0.0
22,1.43096824733,0.588320101023,74.5110720624,2.18894708304,0.210829429878,51.304429212,3.71202283667,0.153372984209,0.865637566599,2.80703502873,0.0,0.0,0.0
23,1.4655752628,0.603197849544,73.4044508511,2.2028196231,0.211330582258,52.2813104592,3.73423127218,0.156653378991,0.852072031346,2.77979749221,0.0,0.0,0.0
24,1.49851318726,0.618128959603,72.3316102633,2.21592468288,0.210992972594,53.1976687331,3.75520247526,0.158989174967,0.838989044101,2.75440398942,0.0,0.0,0.0
25,1.52989550241,0.633095061061,71.2919679961,2.22831582697,0.211665420258,54.0583001596,3.77504224794,0.162453802599,0.8256954489,2.72705092844,0.0,0.0,0.0
26,1.55982735584,0.648080113746,70.2847632257,2.24004259017,0.211485607185,54.8675963806,3.79384462753,0.164899880636,0.813008259077,2.70185298953,0.0,0.0,0.0
27,1.58840599897,0.663070123539,69.3091079175,2.25115070005,0.211067371207,55.6295711968,3.81169350502,0.166996753335,0.800713019648,2.67764104386,0.0,0.0,0.0
28,1.61572126937,0.678052890904,68.3640274161,2.26168231875,0.210406807591,56.3478886114,3.82866397032,0.168712521013,0.788837655726,2.65456281575,0.0,0.0,0.0
29,1.64185609249,0.693017789879,67.4484922522,2.27167629194,0.210194589573,57.0258909807,3.84012179571,0.170933935461,0.779903932943,2.63360624418,0.0,0.0,0.0
30,1.66688698255,0.707955573712,66.5614428929,2.28116839587,0.209764619135,57.6666263517,3.84369682417,0.172804080313,0.775880263411,2.61847745151,0.0,0.0,0.0
31,1.69088453061,0.722858204468,65.7018088081,2.29019157681,0.209115140976,58.2728744612,3.84702950024,0.17429795366,0.772266271504,2.60466051595,0.0,0.0,0.0
32,1.71391387204,0.737718704134,64.8685229777,2.29877617943,0.208244924281,58.8471710976,3.85013092147,0.17539341596,0.769033649392,2.59221256852,0.0,0.0,0.0
33,1.73603512732,0.752531023851,64.0605328146,2.3069501615,0.207153189586,59.3918306463,3.85301201899,0.176071586618,0.766154906415,2.58118213011,0.0,0.0,0.0
34,1.75730381516,0.767289930093,63.2768081924,2.31473929433,0.206607603677,59.9089668251,3.85568343981,0.177447289036,0.76331468492,2.56897178969,0.0,0.0,0.0
35,1.7777712358,0.781990904969,62.5163472293,2.32216734846,0.205869482407,60.4005116104,3.85815546798,0.178458659195,0.760786022275,2.55802440767,0.0,0.0,0.0
36,1.79748482474,0.796630058805,61.7781803125,2.32925626447,0.20493886894,60.8682324342,3.86043797421,0.179091658374,0.758544018228,2.54836965695,0.0,0.0,0.0
37,1.81648847873,0.81120405424,61.0613727124,2.33602631002,0.203816038651,61.3137477823,3.86254038691,0.179335155259,0.756565777169,2.54003130734,0.0,0.0,0.0
38,1.83482285385,0.825710039258,60.3650261541,2.34249622334,0.202501466123,61.7385412723,3.86447167841,0.179181117869,0.754830818287,2.53302771898,0.0,0.0,0.0
39,1.85252563851,0.840145588795,59.6882795523,2.34868334416,0.201836783166,62.1439743625,3.86624036259,0.17995748802,0.753057894614,2.52417018847,0.0,0.0,0.0
40,1.86963180252,0.854508653528,59.0303091201,2.35460373313,0.201010549234,62.5312978009,3.8678545004,0.180401928057,0.751500949998,2.51645117126,0.0,0.0,0.0
41,1.88617382427,0.868797515004,58.3903280034,2.35211669995,0.201762791398,62.4264953945,3.85250878463,0.181131846355,0.761400547216,2.5284458344,0.0,0.0,0.0
42,1.90218189733,0.883010745954,57.7675855791,2.34668617587,0.204179667115,62.1607705533,3.83128543044,0.183796057749,0.774662422633,2.54312132393,0.0,0.0,0.0
43,1.91768411918,0.897147175995,57.1613664728,2.34148083841,0.206550406024,61.9197973235,3.81069438607,0.186494766489,0.787210412742,2.55732865639,0.0,0.0,0.0
44,1.93270666249,0.911205860974,56.5709894224,2.33648875121,0.207962904359,61.7018692658,3.79071564542,0.187734383641,0.799272606277,2.57405176882,0.0,0.0,0.0
45,1.94727393092,0.925186055965,55.9958060212,2.33169880413,0.21022746733,61.5054024566,3.77132974113,0.190463176299,0.810489717625,2.58733010658,0.0,0.0,0.0
46,1.96140870153,0.939087191946,55.435199367,2.32710064562,0.21150612949,61.3289264934,3.75251774391,0.191670978364,0.821265888423,2.6030115906,0.0,0.0,0.0
47,1.97513225399,0.952908854796,54.8885826932,2.32268462155,0.212711391197,61.171076128,3.73426126159,0.192845956021,0.831446424625,2.61818415993,0.0,0.0,0.0
48,1.98846448818,0.966650766699,54.3553979884,2.31844171947,0.214811286686,61.0305834896,3.71654243725,0.195582943665,0.840920761747,2.63026118054,0.0,0.0,0.0
49,2.00142403202,0.980312770257,53.8351146029,2.3143635177,0.215884699362,60.9062708613,3.69934394532,0.196706750404,0.850015212672,2.64458607588,0.0,0.0,0.0
50,2.01402833896,0.993894813691,53.3272279105,2.31044213927,0.216885960564,60.7970439914,3.68264898777,0.197787863919,0.8586065756,2.65849010233,0.0,0.0,0.0
51,2.02629377774,1.00739693843,52.8312579756,2.30667020965,0.217815559494,60.7018858918,3.66644128812,0.198823135018,0.866722512394,2.67199795728,0.0,0.0,0.0
52,2.0382357139,1.02081926774,52.3467482802,2.30304081837,0.218674002545,60.6198511019,3.65070508506,0.199809542604,0.874389162513,2.68513184416,0.0,0.0,0.0
53,2.0498685842,1.03416199648,51.8732645033,2.29954748396,0.22049700751,60.5500603848,3.63542512512,0.202483283466,0.881531913523,2.69561481785,0.0,0.0,0.0
54,2.06120596525,1.04742538265,51.4103933265,2.29618412184,0.221227988995,60.4916958183,3.62058665376,0.20338968435,0.88837912175,2.7081153134,0.0,0.0,0.0
55,2.07226063563,1.0606097391,50.9577413273,2.29294501506,0.22188933008,60.4439962657,3.60617540662,0.204238936908,0.894846716403,2.7202940729,0.0,0.0,0.0
56,2.0830446335,1.07371542689,50.5149338909,2.28982478743,0.22248158024,60.406253185,3.59217759915,0.20502843632,0.900955527521,2.73216617532,0.0,0.0,0.0
57,2.09356930877,1.08674284878,50.0816142077,2.286818379,0.223005294601,60.3778067626,3.57857991643,0.20575568785,0.906725232606,2.7437453404,0.0,0.0,0.0
58,2.10384537154,1.09969244381,49.6574423014,2.2839210235,0.223461032445,60.3580423399,3.56536950192,0.206418306506,0.912174420586,2.75504407639,0.0,0.0,0.0
59,2.11388293636,1.11256468252,49.2420941133,2.28112822768,0.223849355875,60.346387114,3.55253394592,0.207014017369,0.917320652444,2.76607380877,0.0,0.0,0.0
60,2.1236915628,1.12536006226,48.8352606487,2.27843575233,0.225297315107,60.3423070911,3.54006127404,0.209480053564,0.922121792044,2.77490107211,0.0,0.0,0.0
61,2.13328029316,1.13807910366,48.4366471505,2.2758395948,0.225565233111,60.3453042721,3.52793993489,0.209961735618,0.926714788385,2.78546724042,0.0,0.0,0.0
62,2.14265768675,1.15072234677,48.0459723418,2.27333597298,0.225767352687,60.3549140539,3.51615878815,0.210370085942,0.931051620545,2.79579196656,0.0,0.0,0.0
63,2.15183185199,1.16329034838,47.6629676884,2.27092131048,0.225904237202,60.3707028281,3.504707092,0.210703233854,0.935146297103,2.80588343587,0.0,0.0,0.0
64,2.16081047555,1.17578367885,47.2873767262,2.26859222299,0.225976448181,60.3922657632,3.49357449109,0.210959427525,0.939012055799,2.81574918645,0.0,0.0,0.0
65,2.16960084961,1.18820291996,46.9189544116,2.26634550574,0.225984544743,60.4192247543,3.48275100412,0.211137036718,0.942661406669,2.82539617103,0.0,0.0,0.0
66,2.17820989702,1.20054866266,46.5574665121,2.26417812182,0.225929083084,60.4512265291,3.47222701149,0.2112345556,0.946106172691,2.83483081219,0.0,0.0,0.0
67,2.18664419433,1.21282150499,46.2026890432,2.2620871915,0.227024651512,60.4879408957,3.46199324354,0.213385651281,0.949322788464,2.84239876674,0.0,0.0,0.0
68,2.1949099935,1.22502205062,45.8544077202,2.26006998225,0.226855940745,60.5290591237,3.45204076822,0.213342679192,0.952393355216,2.85146279206,0.0,0.0,0.0
69,2.20301324163,1.23715090697,45.5124174615,2.25812389957,0.226625246675,60.5742924448,3.44236097975,0.213215261191,0.955290880395,2.8603302431,0.0,0.0,0.0
70,2.21095959959,1.24920868407,45.1765219057,2.25624647848,0.226333110393,60.6233706672,3.43294558683,0.213002369552,0.958024813234,2.86900591459,0.0,0.0,0.0
71,2.21875445918,1.26119599341,44.8465329605,2.25443537556,0.225980068368,60.6760408924,3.42378660137,0.212703115397,0.960604086283,2.87749426864,0.0,0.0,0.0
72,2.22640295896,1.2731134466,44.5222703861,2.25268836167,0.226841040022,60.7320663266,3.41487632766,0.214586203698,0.963013200456,2.88431511111,0.0,0.0,0.0
73,2.23390999919,1.28496165461,44.2035613923,2.25100331511,0.226379636348,60.7912251803,3.40620735149,0.214132754211,0.965309243069,2.89247422475,0.0,0.0,0.0
74,2.24128025568,1.29674122696,43.8902402601,2.24937821529,0.225858837842,60.8533096496,3.39777252964,0.213590288287,0.967474486974,2.90045710696,0.0,0.0,0.0
75,2.24851819247,1.30845277078,43.5821479948,2.24781113682,0.225279161263,60.9181249696,3.38956497991,0.21295845132,0.969516077608,2.90826718994,0.0,0.0,0.0
76,2.25562807396,1.32009689028,43.2791319874,2.24630024403,0.225962536308,60.985488539,3.38157807115,0.214608480951,0.971422837274,2.91455265314,0.0,0.0,0.0
77,2.26261397611,1.33167418627,42.9810456982,2.24484378586,0.225278221248,61.0552291077,3.37380541364,0.213814892469,0.973237762857,2.92205762243,0.0,0.0,0.0
78,2.26947979675,1.3431852554,42.6877483656,2.24344009108,0.224536479692,61.1271860213,3.36624085004,0.212930760409,0.974948143068,2.92939841032,0.0,0.0,0.0
79,2.27622926543,1.35463068991,42.3991047218,2.24208756383,0.225093793887,61.2012085218,3.35887844633,0.21440344591,0.976545334328,2.93531426668,0.0,0.0,0.0
80,2.2828659525,1.36601107717,42.1149847297,2.24078467949,0.224250072309,61.2771550971,3.35171248322,0.213353759281,0.978063938636,2.94236431219,0.0,0.0,0.0
81,2.28939327771,1.37732699943,41.8352633311,2.23952998074,0.22472903553,61.3548928775,3.34473744778,0.214716694906,0.979482139036,2.94805279536,1.0,614.488277572,1.3410659304
82,2.29581451806,1.38857903337,41.5598202151,2.23832207398,0.223785014989,61.434297073,3.33794802549,0.213499381138,0.980829178035,2.95482016426,1.0,614.469104151,1.21941556128
83,2.30213281537,1.39976774997,41.2885395925,2.23715962592,0.224187032634,61.5152504522,3.33133909252,0.214748437314,0.982087078189,2.96028727448,1.0,614.488774618,1.14445168466
84,2.30835118337,1.41089371433,41.0213099834,2.23604136035,0.223144356842,61.5976428573,3.32490570813,0.213362221827,0.983280677705,2.96677927171,1.0,614.466930057,1.06974447045
85,2.3144725141,1.42195748538,40.7580240228,2.23496605518,0.223470801633,61.6813707505,3.31864310774,0.214493760207,0.984395067448,2.97203042477,1.0,614.48478254,1.01560919932
86,2.32049958422,1.43295961578,40.4985782683,2.23393253967,0.222331077164,61.766336795,3.31254669586,0.21293819484,0.985451484261,2.97825372123,1.0,614.460191102,0.957582241614
87,2.32643506078,1.44390065181,40.2428730242,2.23293969174,0.222583289315,61.8524494624,3.30661203959,0.213949104799,0.986437447687,2.98329384628,1.0,614.476213051,0.913509505193
88,2.33228150668,1.45478113334,39.9908121691,2.23198643556,0.221348086015,61.9396226688,3.30083486211,0.212224588685,0.9873712624,2.98925458802,1.0,614.448788973,0.864916390125
89,2.33804138579,1.46560159361,39.7423030013,2.23107173919,0.221527373676,62.0277754331,3.29521103677,0.213112319768,0.988242352191,2.99408821234,1.0,614.46296168,0.827147845003
90,2.34371706777,1.47636255925,39.4972560833,2.23019461241,0.220198225234,62.116831561,3.28973658108,0.21122011174,0.989066641878,2.99979211477,1.0,614.432608346,0.785890052834
91,2.34931083262,1.48706455024,39.2555851004,2.2293541047,0.220305864989,62.2067193488,3.28440765111,0.211982700826,0.989835035247,3.00442343691,1.0,614.444906576,0.819182980266
92,2.35482487504,1.49770807997,39.017206722,2.22854930325,0.220383476927,62.2973713078,3.27922053611,0.212700352891,0.990556619197,3.00896772698,1.0,614.456399344,0.850833392628
93,2.36026130833,1.50829365503,38.7820404761,2.2277793312,0.218921507195,62.3887239056,3.27417165332,0.210561015421,0.991238166634,3.01430881991,1.0,614.42190717,0.886588542445
94,2.36562216831,1.51882177539,38.5500086246,2.22704334587,0.218929270641,62.4807173262,3.269257543,0.211150974875,0.991872988853,3.01865631474,1.0,614.431488975,0.91515045179
95,2.37090941686,1.52929293431,38.3210360474,2.2263405372,0.21890780313,62.5732952446,3.26447486365,0.211694120576,0.992468265974,3.02291895358,1.0,614.440263109,0.942518478542
96,2.3761249454,1.53970761847,38.095050131,2.2256701262,0.217316096035,62.6664046177,3.25982038744,0.209311297666,0.993029484123,3.02790751688,1.0,614.401431026,0.973566343079
97,2.38127057797,1.55006630788,37.8719806659,2.22503136349,0.21722651536,62.759995486,3.25529099586,0.209725418567,0.993551590005,3.03197846902,1.0,614.408243347,0.998595975241
98,2.38634807436,1.56036947599,37.6517597452,2.22442352798,0.217108471381,62.8540207914,3.25088367548,0.210091319982,0.994040354491,3.0359665919,1.0,614.414240044,1.02269173894
99,2.39135913295,1.57061758971,37.4343216701,2.22384592554,0.216962195329,62.9484362043,3.24659551392,0.210408482318,0.994497621191,3.03987243875,1.0,614.419421042,1.04591260899
100,2.39630539345,1.58081110947,37.2196028602,2.22329788784,0.215205522179,63.0431999628,3.24242369605,0.207708002659,0.994927490645,3.04441362159,1.0,614.374799806,1.0722736792
101,2.40118843943,1.59095048933,37.0075417665,2.22277877115,0.21499331515,63.1382727225,3.23836550019,0.207895684398,0.995326627514,3.0481340057,1.0,614.377938544,1.09372108393
102,2.4060098008,1.60103617692,36.7980787916,2.2222879553,0.214753607096,63.2336174141,3.23441829466,0.20803386098,0.995699294484,3.05177402602,1.0,614.380245742,1.11443996087
103,2.41077095609,1.61106861361,36.5911562109,2.22182484259,0.214486618016,63.3291991119,3.23057953434,0.208122191438,0.996046987031,3.05533421194,1.0,614.381719027,1.13446552664
104,2.41547333464,1.62104823451,36.3867180987,2.22138885687,0.214192565315,63.4249849094,3.22684675739,0.208160374195,0.996371125007,3.05881509018,1.0,614.382355498,1.15382937199
105,2.42011831873,1.63097546863,36.184710257,2.22097944259,0.213871663856,63.5209438033,3.22321758215,0.208148147949,0.996673056336,3.06221718589,1.0,614.382151723,1.17255996067
106,2.42470724545,1.64085073886,35.9850801496,2.22059606394,0.21188163276,63.6170465837,3.21968970417,0.204988133985,0.996955427272,3.06612725715,1.0,614.328666431,1.1937207805
107,2.42924140869,1.65067446208,35.7877768373,2.22023820398,0.211497834802,63.7132657321,3.2162608933,0.204848632639,0.997216561742,3.06935258726,1.0,614.326267139,1.21112863642
108,2.43372206083,1.66044704924,35.5927509167,2.21990536391,0.211087868951,63.8095753249,3.21292899096,0.204658928523,0.997459155243,3.07250100611,1.0,614.322999144,1.22797859368
109,2.4381504145,1.67016890548,35.3999544613,2.21959706225,0.210651939865,63.9059509436,3.20969190749,0.204418954096,0.997684299223,3.07557304264,1.0,614.318856438,1.24428979904
110,2.44252764412,1.67984043012,35.2093409671,2.21931283418,0.210190249856,64.0023695893,3.20654761964,0.204128684461,0.9978930293,3.07856922869,1.0,614.313832426,1.26007984063
111,2.44685488747,1.6894620168,35.0208652983,2.21905223087,0.209702998931,64.0988096032,3.20349416814,0.203788137704,0.998086327981,3.08149009972,1.0,614.307919916,1.27536492715
112,2.45113324717,1.69903405358,34.8344836372,2.21881481878,0.20919038483,64.1952505917,3.20052965536,0.203397375133,0.998265127254,3.08433619548,1.0,614.301111104,1.29016004297
113,2.455363792,1.70855692296,34.6501534349,2.2186001791,0.208652603065,64.291673356,3.19765224309,0.202956501424,0.998430311047,3.08710806061,1.0,614.293397565,1.3044790832
114,2.45954755829,1.71803100202,34.4678333657,2.21840790715,0.208089846959,64.3880598255,3.19486015042,0.202465664679,0.998582717574,3.08980624525,1.0,614.284770239,1.31833497177
115,2.46368555113,1.72745666245,34.287483282,2.21823761181,0.207502307677,64.4843929954,3.19215165165,0.201925056385,0.998723141559,3.09243130559,1.0,614.27521941,1.33173976513
116,2.46777874559,1.73683427069,34.1090641729,2.21808891502,0.206890174268,64.5806568682,3.18952507435,0.201334911286,0.99885233636,3.09498380438,1.0,614.264734697,1.34470474372
117,2.47182808786,1.74616418797,33.9325381219,2.21796145127,0.206253633703,64.6768363982,3.18697879748,0.200695507169,0.998971015978,3.09746431141,1.0,614.253305032,1.35724049297
118,2.47583449635,1.75544677038,33.7578682701,2.2178548671,0.205592870901,64.7729174395,3.18451124954,0.20000716453,0.999079856981,3.09987340399,1.0,614.240918645,1.36935697516
