,theta i [rad],r orb [AU],v orb [km s-1],ang orb [rad],r L1 [AU],v i [km s-1],ang i [rad],a p [AU],e p,theta p i [rad],flag impact,v imp [km s-1],ang imp [rad]
0,0.0,0.64575,70.4392405828,1.57079632679,0.306391895402,7.04392405828,1.57079632679,0.154519569073,0.982867912717,3.14159265359,1.0,613.176854384,0.858812495165
1,0.0374916342598,0.645927347139,70.4274559305,1.58544416245,0.306476042092,7.09992427196,1.71660594966,0.154583699627,0.982960366901,3.14413881079,1.0,613.178797048,0.85594940368
2,0.0749421427565,0.646458944984,70.3921583903,1.60007319196,0.3067282717,7.26501999393,1.8583723062,0.154776038788,0.983235736491,3.14663943053,1.0,613.184613759,0.847423347672
3,0.11231070439,0.647343467325,70.3335163935,1.61466475105,0.307147954973,7.53113260762,1.99276516939,0.155096429796,0.983688091086,3.1490496425,1.0,613.194270853,0.833416575943
4,0.14955710235,0.64857871876,70.2518079538,1.62920045673,0.307734050249,7.88661504111,2.11759142056,0.155544613833,0.984307706245,3.15132588746,1.0,613.207712828,0.814210017098
5,0.186642011895,0.65016165676,70.1474166914,1.64366234124,0.307834301462,8.31815223531,2.23183786597,0.155786865062,0.985112622392,3.15340117337,1.0,613.214946125,0.788043457637
6,0.223527272169,0.652088421879,70.0208264277,1.65803297837,0.308746573635,8.81236242611,2.33544255449,0.156487457571,0.986021676926,3.15528296953,1.0,613.235738369,0.811149477636
7,0.260176136327,0.654354375385,69.8726145042,1.67229559968,0.309164433135,9.35683611609,2.42897018719,0.156976389894,0.987075646026,3.15688137223,1.0,613.250138573,0.845458930038
8,0.29655349652,0.656954143511,69.7034440094,1.6864341989,0.310392752009,9.94064030088,2.51331845165,0.157925774735,0.988196041114,3.15822619406,1.0,613.277844571,0.88143190161
9,0.332626082124,0.659881667481,69.5140551126,1.70043362369,0.311115384294,10.5544457902,2.58950622473,0.158655985203,0.989410648992,3.1592208684,1.0,613.298927948,0.922299018148
10,0.368362626326,0.663130258152,69.3052557338,1.71427965261,0.312647002118,11.1904413753,2.65854366689,0.159849927459,0.990647307644,3.15991390727,1.0,613.332984171,0.964407112811
11,0.403734001825,0.666692654325,69.0779117662,1.72795905753,0.313659210276,11.8421538,2.72136409039,0.160815454682,0.991921405586,3.16020782281,1.0,613.360153862,1.0105335251
12,0.43871332435,0.670561083616,68.8329370756,1.74145965108,0.314807959716,12.5042439241,2.77879564486,0.16189417782,0.993184147136,3.1601246664,1.0,613.390124165,1.05884502604
13,0.473276024377,0.674727324828,68.5712834869,1.75477031905,0.316088480046,13.1723141774,2.83155585747,0.16308409592,0.994409048249,3.15965242415,1.0,613.422722261,1.109149965
14,0.507399888863,0.679182770906,68.2939309437,1.76788103883,0.317495853419,13.8427412522,2.88025786186,0.164383178328,0.995570194811,3.15878264811,1.0,613.457770144,1.16129755567
15,0.541065072829,0.683918491329,68.0018780262,1.78078288384,0.319025045565,14.5125368858,2.92542166828,0.165789373833,0.996642606298,3.15751021067,1.0,613.495086574,1.21517495186
16,0.574254085555,0.688925293399,67.6961329534,1.79346801599,0.320670935933,15.1792346694,2.9674868344,0.167300619645,0.997602548171,3.15583302208,1.0,613.534488927,1.27070475721
17,0.606951751929,0.694193781436,67.3777052017,1.80592966665,0.322428346506,15.8407989668,3.00682470326,0.168914849976,0.998427790719,3.15375172398,1.0,613.5757949,1.32784322789
18,0.639145153349,0.699714413475,67.0475978169,1.81816210808,0.324292069088,16.4955518643,3.04374940662,0.170630004219,0.999097814222,3.15126937028,1.0,613.618824056,1.38657936144
19,0.670823549161,0.705477554635,66.7068005008,1.83016061593,0.326256890719,17.142114425,3.07852737541,0.172444034516,0.999593962037,3.14839110577,1.0,613.663399209,1.44693504593
20,0.701978284264,0.711473527174,66.3562834849,1.84192142524,0.328317617238,17.7793592266,3.11138537669,0.174354912817,0.99989954468,3.14512385068,1.0,613.709347622,1.50896648907
21,0.732602683812,0.717692656604,65.9969922234,1.85344168062,0.329750683672,18.4063716887,3.1425172122,0.17595148868,0.999999899154,3.14147625171,1.0,613.74697056,1.568829675
22,0.762691939304,0.724125313954,65.6298428862,1.86471938242,0.331981378783,19.0224183004,3.17208925904,0.178042209619,0.999882644499,3.13746614029,1.0,613.795214197,1.5032660468
23,0.792242986926,0.730761953697,65.2557186471,1.87575332949,0.334292508969,19.6269202342,3.20024503196,0.180223492891,0.999537412882,3.13309635114,1.0,613.844350575,1.43561743324
24,0.821254383468,0.737593147944,64.8754666979,1.88654306086,0.335940826775,20.2194312728,3.22710893572,0.182059670328,0.998957710277,3.12840707424,1.0,613.88479729,1.36609066281
25,0.84972617856,0.744609616219,64.489895981,1.89708879583,0.338391160564,20.7996191155,3.25278934816,0.184407423989,0.99813429736,3.12336316301,1.0,613.935335743,1.29362285654
26,0.877659788204,0.7518022516,64.0997755485,1.90739137482,0.340154776153,21.3672494634,3.27738115826,0.186387801902,0.9970691162,3.11804738362,1.0,613.976972909,1.21888757644
27,0.905057869831,0.759162143091,63.7058335048,1.91745220094,0.342724855049,21.9221723485,3.30096785819,0.188893276838,0.995749884431,3.1123801042,1.0,614.028395285,1.13989957374
28,0.931924199413,0.766680594184,63.3087564827,1.92727318276,0.344584174637,22.4643102976,3.32362327108,0.191007796137,0.994190355255,3.10649218551,1.0,614.070740755,1.05774046016
29,0.95826355438,0.774349138528,62.9091895534,1.93685667975,0.346480549158,22.9936480768,3.3454129837,0.193180577853,0.99238599887,3.10034558078,1.0,614.113284373,0.970592528451
30,0.984081599928,0.782159552067,62.5077365554,1.94620544954,0.349192356272,23.5102237117,3.36639553572,0.195901587677,0.990320314969,3.09384615882,1.0,614.165227509,0.875103070917
31,1.00938478226,0.790103862683,62.1049607425,1.95532259834,0.351157276014,24.0141206486,3.38662341199,0.198193746433,0.988030958853,3.08720777299,1.0,614.207873952,0.798609064077
32,1.03418022783,0.798174357246,61.7013857131,1.96421153434,0.353146215839,24.5054608746,3.4061438724,0.200536445027,0.985507685875,3.08035066199,1.0,614.250450364,0.914696933275
33,1.0584756483,0.806363586082,61.2974965832,1.97287592383,0.355962307497,24.9843988566,3.42499964763,0.203454285617,0.98272241063,3.07312973807,1.0,614.302104368,1.05675367049
34,1.08227925341,0.814664365827,60.8937413174,1.98131965099,0.357995655994,25.4511162394,3.44322952623,0.205902430358,0.979743720019,3.06585491073,1.0,614.344310756,1.24601076535
35,1.10559966914,0.823069779957,60.4905322246,1.98954678029,0.360041539134,25.9058171567,3.46086884969,0.208393796275,0.976550342891,3.0583974742,0.0,0.0,0.0
36,1.12844586395,0.83157317827,60.0882475294,1.99756152261,0.362096432747,26.3487241402,3.4779499336,0.210925907484,0.973150104289,3.05076873516,0.0,0.0,0.0
37,1.15082707996,0.840168174442,59.6872330372,2.00536820379,0.364156980294,26.7800745024,3.49450242506,0.213496327652,0.969551286334,3.04297950102,0.0,0.0,0.0
38,1.17275277148,0.848848642799,59.2878038222,2.01297123649,0.366219988829,27.2001171869,3.51055360895,0.216102658391,0.965762534056,3.03504008454,0.0,0.0,0.0
39,1.1942325492,0.857608714034,58.8902459322,2.02037509485,0.368282424552,27.6091100126,3.5261286705,0.218742537558,0.961792769416,3.02696031345,0.0,0.0,0.0
40,1.21527612942,0.866442769779,58.4948181047,2.0275842914,0.370341407924,28.0073172564,3.5412509208,0.221413637353,0.957651113477,3.01874954443,0.0,0.0,0.0
41,1.2358932897,0.875345437005,58.1017534371,2.034603357,0.37239420877,28.3950075742,3.55594199253,0.224113662616,0.953346816098,3.01041667976,0.0,0.0,0.0
42,1.25609382824,0.884311581326,57.711261046,2.04143682258,0.374438240989,28.7724521774,3.57022200893,0.226840348876,0.948889193263,3.00197018677,0.0,0.0,0.0
43,1.2758875288,0.893336300265,57.3235276639,2.04808920333,0.37647105733,29.1399232748,3.58410973144,0.229591460583,0.944287571238,2.99341811864,0.0,0.0,0.0
44,1.29528412974,0.902414916141,56.938719182,2.05456498486,0.378490344081,29.4976927333,3.5976226887,0.23236478934,0.939551237292,2.98476813629,0.0,0.0,0.0
45,1.3142932963,0.911542968424,56.5569821459,2.06086861098,0.380493915636,29.8460309222,3.61077728922,0.235158152056,0.934689396683,2.97602753131,0.0,0.0,0.0
46,1.33292459764,0.920716206436,56.1784451638,2.06700447338,0.382479709281,30.1852057502,3.6235889213,0.237969389366,0.929711135015,2.96720324858,0.0,0.0,0.0
47,1.35118748591,0.929930581442,55.8032202687,2.07297690259,0.38444577983,30.5154818364,3.63607204054,0.24079636389,0.924625386058,2.95830190945,0.0,0.0,0.0
48,1.36909127924,0.939182239105,55.4314041937,2.07879016051,0.38545017214,30.8371198298,3.64824024801,0.242889869474,0.919592197915,2.94983540187,0.0,0.0,0.0
49,1.38664514718,0.948467511927,55.0630795795,2.0844484341,0.387362110925,31.150375847,3.65038316214,0.245724473713,0.917360713309,2.94386911546,0.0,0.0,0.0
50,1.40385809807,0.957782911454,54.6983161223,2.08995583007,0.389249115127,31.4555010029,3.6498218458,0.248568172403,0.915993643118,2.93876361243,0.0,0.0,0.0
51,1.42073896953,0.967125121106,54.3371716335,2.09531637078,0.391109662564,31.7527410514,3.6492453976,0.251418904422,0.914676228497,2.93370155939,0.0,0.0,0.0
52,1.43729641981,0.976490988597,53.9796930519,2.10053399081,0.392942323728,32.042336087,3.64865088015,0.254274624088,0.913409581623,2.92868753324,0.0,0.0,0.0
53,1.45353892178,0.985877518926,53.625917375,2.10561253444,0.394745757329,32.3245203303,3.64803574866,0.257133300166,0.912194641669,2.92372594763,0.0,0.0,0.0
54,1.46947475814,0.995281867495,53.2758725294,2.11055575387,0.395522427845,32.599521971,3.64739780661,0.259136929047,0.911193799884,2.9194302624,0.0,0.0,0.0
55,1.48511201769,1.00470133315,52.9295781907,2.11536730784,0.397254284912,32.8675630557,3.64673516651,0.261975999775,0.91008532957,2.91460306174,0.0,0.0,0.0
56,1.50045859321,1.01413335173,52.5870465343,2.12005076104,0.398953364642,33.1288594303,3.64604621504,0.264811687205,0.909030270862,2.90984052514,0.0,0.0,0.0
57,1.51552218046,1.02357548985,52.2482829315,2.12460958386,0.400618639233,33.3836207196,3.64532958207,0.267642014325,0.90802894567,2.9051463866,0.0,0.0,0.0
58,1.53031027746,1.03302543854,51.9132866066,2.12904715251,0.401215089326,33.6320503311,3.64458411316,0.26953085215,0.907246277732,2.90120068677,0.0,0.0,0.0
59,1.54483018551,1.04248100767,51.5820512245,2.13336674963,0.402800473529,33.8743455024,3.64380884505,0.272323916849,0.90635319092,2.89667062493,0.0,0.0,0.0
60,1.5590890099,1.05194012,51.2545654544,2.13757156502,0.404349359547,34.1106973551,3.64300298396,0.275105456619,0.905513885874,2.8922190872,0.0,0.0,0.0
61,1.57309366198,1.0614008059,50.9308134737,2.14166469679,0.40586097295,34.3412909815,3.64216588615,0.277873543722,0.904728193654,2.88784913042,0.0,0.0,0.0
62,1.58685086159,1.0708611983,50.6107754342,2.14564915269,0.406262660957,34.5663055447,3.64129704063,0.279609731528,0.904161614264,2.88430634055,0.0,0.0,0.0
63,1.60036713942,1.08031952737,50.2944279019,2.14952785152,0.40768815413,34.785914385,3.64039605383,0.282323461893,0.90348205965,2.88012443532,0.0,0.0,0.0
64,1.61364884035,1.08977411605,49.9817442473,2.15330362482,0.409074372061,35.000285147,3.63946263585,0.28501775335,0.90285489268,2.87603218827,0.0,0.0,0.0
65,1.62670212675,1.09922337533,49.6726950115,2.1569792186,0.410420743925,35.2095799085,3.63849658823,0.287690730017,0.902279576314,2.87203200381,0.0,0.0,0.0
66,1.63953298224,1.10866580008,49.3672482357,2.16055729524,0.410616967198,35.4139553215,3.637497793,0.289238018885,0.901920441604,2.86893324672,0.0,0.0,0.0
67,1.65214721525,1.11809996468,49.0653697726,2.1640404354,0.411872663882,35.6135627502,3.63646620302,0.291840168355,0.901446301155,2.8651396069,0.0,0.0,0.0
68,1.66455046314,1.12752451922,48.7670235614,2.16743113995,0.413087065329,35.80854842,3.63540183325,0.2944152199,0.901021868926,2.86144416598,0.0,0.0,0.0
69,1.6767481964,1.13693818578,48.4721718805,2.17073183216,0.414259763629,35.9990535671,3.63430475297,0.296961358756,0.900646350464,2.85784871736,0.0,0.0,0.0
70,1.68874572252,1.14633975467,48.1807755861,2.17394485958,0.414242898596,36.1852145839,3.63317507891,0.298285374336,0.900481426894,2.85522401177,0.0,0.0,0.0
71,1.70054819039,1.15572808112,47.8927943203,2.17707249623,0.415321707105,36.3671631711,3.63201296906,0.300744954953,0.90020016552,2.8518484907,0.0,0.0,0.0
72,1.71216059461,1.16510208215,47.6081867017,2.18011694464,0.416357805421,36.5450264877,3.63081861715,0.303170086385,0.899965069419,2.8485773075,0.0,0.0,0.0
73,1.72358777953,1.17446073323,47.3269105067,2.1830803379,0.417350915513,36.7189272952,3.62959224774,0.305559029795,0.899775181201,2.84541169764,0.0,0.0,0.0
74,1.7348344436,1.18380306553,47.048922825,2.18596474177,0.418300787236,36.8889841056,3.62833411185,0.307910065279,0.899629514176,2.84235276785,0.0,0.0,0.0
75,1.74590514354,1.19312816307,46.7741802051,2.18877215662,0.418012874286,37.0553113243,3.62704448304,0.308915188598,0.899684606307,2.84034394099,0.0,0.0,0.0
76,1.75680429862,1.20243516015,46.5026387829,2.19150451956,0.418866306389,37.2180193923,3.62572365391,0.311161323054,0.899622976845,2.83751530093,0.0,0.0,0.0
77,1.76753619457,1.21172323867,46.2342544044,2.19416370629,0.419675920865,37.3772149214,3.62437193302,0.313364394708,0.899602415627,2.83479570375,0.0,0.0,0.0
78,1.77810498774,1.22099162587,45.9689827297,2.19675153313,0.420441565242,37.5330008305,3.62298964212,0.315522784,0.899621866503,2.83218577319,0.0,0.0,0.0
79,1.78851470904,1.230239592,45.7067793301,2.19926975886,0.42116310796,37.6854764767,3.62157711371,0.31763489653,0.899680264077,2.82968602327,0.0,0.0,0.0
80,1.79876926793,1.23946644824,45.4475997726,2.20172008662,0.421840437242,37.8347377839,3.62013468879,0.319699164416,0.899776536969,2.82729686192,0.0,0.0,0.0
81,1.80887245608,1.24867154454,45.1913997021,2.2041041657,0.421223538471,37.9808773648,3.61866271501,0.320266668017,0.900059188403,2.82604190943,0.0,0.0,0.0
82,1.81882795119,1.25785426775,44.9381349075,2.20642359331,0.421802987119,38.1239846434,3.6171615449,0.322206304343,0.900226371338,2.8238874503,0.0,0.0,0.0
83,1.82863932058,1.26701403972,44.6877613862,2.2086799163,0.422338017696,38.2641459703,3.61563153432,0.324093533617,0.900428177256,2.8218439588,0.0,0.0,0.0
84,1.83831002486,1.2761503157,44.4402353962,2.21087463286,0.422828587547,38.4014447377,3.61407304117,0.325926922702,0.90066354374,2.81991145326,0.0,0.0,0.0
85,1.84784342118,1.28526258243,44.1955135105,2.21300919411,0.423274668765,38.5359614862,3.61248642416,0.327705072034,0.900931415371,2.81808986489,0.0,0.0,0.0
86,1.85724276672,1.29435035676,43.953552657,2.21508500571,0.423676247398,38.6677740121,3.61087204178,0.329426617082,0.901230745723,2.8163790413,0.0,0.0,0.0
87,1.8665112219,1.30341318405,43.7143101588,2.21710342938,0.424033322642,38.7969574687,3.60923025137,0.331090229709,0.901560499188,2.81477875006,0.0,0.0,0.0
88,1.87565185364,1.31245063685,43.4777437657,2.21906578438,0.424345906126,38.9235844662,3.6075614083,0.332694619616,0.901919652624,2.81328868212,0.0,0.0,0.0
89,1.88466763825,1.32146231342,43.2438116874,2.22097334897,0.42461402116,39.047725164,3.60586586529,0.334238535632,0.902307196841,2.81190845524,0.0,0.0,0.0
90,1.89356146456,1.33044783653,43.0124726164,2.22282736177,0.424837702098,39.1694473641,3.60414397178,0.33572076714,0.902722137923,2.8106376173,0.0,0.0,0.0
91,1.90233613672,1.33940685219,42.7836857514,2.22462902312,0.425016993695,39.2888165984,3.6023960734,0.337140145386,0.903163498408,2.80947564956,0.0,0.0,0.0
92,1.91099437709,1.34833902863,42.5574108137,2.22637949642,0.42515195054,39.4058962149,3.60062251148,0.33849554484,0.903630318328,2.80842196976,0.0,0.0,0.0
93,1.91953882883,1.357244055,42.3336080673,2.22807990932,0.425242636435,39.5207474568,3.59882362272,0.339785884396,0.904121656102,2.80747593528,0.0,0.0,0.0
94,1.92797205853,1.36612164046,42.1122383291,2.22973135499,0.425289123905,39.6334295432,3.59699973878,0.341010128676,0.904636589326,2.80663684608,0.0,0.0,0.0
95,1.93629655883,1.37497151318,41.8932629802,2.23133489326,0.425291493677,39.7439997439,3.59515118606,0.342167289211,0.905174215421,2.80590394763,0.0,0.0,0.0
96,1.94451475074,1.38379341934,41.6766439758,2.23289155178,0.425249834197,39.8525134519,3.59327828542,0.343256425593,0.905733652186,2.80527643371,0.0,0.0,0.0
97,1.95262898614,1.39258712236,41.4623438493,2.23440232711,0.425164241198,39.9590242539,3.59138135199,0.344276646615,0.90631403824,2.80475344915,0.0,0.0,0.0
98,1.96064154992,1.40135240188,41.2503257207,2.23586818575,0.425034817239,40.0635839964,3.58946069504,0.345227111257,0.906914533366,2.80433409246,0.0,0.0,0.0
99,1.96855466228,1.4100890531,41.0405532974,2.23729006519,0.42486167132,40.1662428511,3.58751661781,0.346107029721,0.907534318766,2.80401741835,0.0,0.0,0.0
100,1.97637048081,1.41879688592,40.8329908772,2.23866887486,0.426065135583,40.2670493762,3.58554941747,0.348815440406,0.908055157613,2.80258184097,0.0,0.0,0.0
101,1.9840911026,1.42747572434,40.6276033471,2.24000549713,0.42581358412,40.366050577,3.58355938499,0.349574265142,0.908712703616,2.80245980333,0.0,0.0,0.0
102,1.99171856614,1.43612540557,40.4243561856,2.24130078816,0.42551864339,40.4632919618,3.58154680513,0.350260208469,0.909387179576,2.80243764167,0.0,0.0,0.0
103,1.99925485332,1.44474577957,40.2232154587,2.24255557882,0.425180444348,40.5588175975,3.57951195642,0.350872677827,0.91007785133,2.80251425891,0.0,0.0,0.0
104,2.0067018912,1.45333670829,40.0241478184,2.24377067553,0.424799122668,40.6526701625,3.57745511113,0.351411136009,0.910784006401,2.80268852553,0.0,0.0,0.0
105,2.01406155386,1.46189806515,39.8271204991,2.24494686107,0.42583817987,40.7448909969,3.5753765353,0.353891825725,0.911396347546,2.80170240575,0.0,0.0,0.0
106,2.02133566411,1.4704297345,39.6321013118,2.2460848954,0.425379577591,40.8355201523,3.57327648872,0.354301673206,0.912132796641,2.80206207044,0.0,0.0,0.0
107,2.02852599509,1.47893161095,39.4390586428,2.24718551635,0.424878255356,40.9245964369,3.57115522503,0.354635874853,0.912882677142,2.80251608629,0.0,0.0,0.0
108,2.03563427195,1.48740359902,39.2479614451,2.24824944044,0.424334364855,41.0121574617,3.56901299172,0.354894104909,0.913645359818,2.8030632125,0.0,0.0,0.0
109,2.04266217333,1.49584561253,39.0587792341,2.24927736352,0.42524540414,41.0982396829,3.56685003021,0.357183835985,0.91431838614,2.80242104497,0.0,0.0,0.0
110,2.04961133289,1.50425757423,38.8714820807,2.25026996148,0.42462526599,41.182878444,3.56466657587,0.357308854917,0.915106082745,2.80314524708,0.0,0.0,0.0
111,2.05648334075,1.51263941529,38.6860406049,2.2512278909,0.42396300409,41.2661080148,3.56246285816,0.357356852977,0.915904767865,2.80395896668,0.0,0.0,0.0
112,2.06327974488,1.52099107497,38.5024259678,2.25215178969,0.424781296023,41.3479616306,3.56023910064,0.359503374946,0.916617087211,2.80356425783,0.0,0.0,0.0
113,2.07000205239,1.52931250009,38.3206098659,2.25304227768,0.424043610961,41.4284715277,3.5579955211,0.359415455148,0.917437201132,2.8045484769,0.0,0.0,0.0
114,2.07665173086,1.53760364478,38.1405645225,2.25389995721,0.424803414206,41.5076689797,3.55573233162,0.361473124038,0.918173539752,2.80431273589,0.0,0.0,0.0
115,2.08323020959,1.54586447005,37.9622626798,2.25472541372,0.4239908605,41.5855843309,3.55344973867,0.361247663166,0.919012841402,2.80546306357,0.0,0.0,0.0
116,2.0897388808,1.55409494345,37.7856775917,2.25551921626,0.423136966444,41.6622470288,3.55114794319,0.360944253965,0.919860461747,2.80669663935,0.0,0.0,0.0
117,2.09617910079,1.56229503881,37.6107830143,2.25628191804,0.423805766148,41.7376856559,3.54882714071,0.362849745961,0.920627255967,2.80669481051,0.0,0.0,0.0
118,2.10255219102,1.57046473581,37.4375532,2.25701405694,0.422877896707,41.811927959,3.54648752141,0.362407345095,0.921490999439,2.80808742386,0.0,0.0,0.0
119,2.10885943924,1.57860401978,37.2659628871,2.25771615598,0.423489371558,41.8850008786,3.54412927027,0.36421849336,0.922276265416,2.80823557327,0.0,0.0,0.0
120,2.11510210053,1.5867128814,37.095987293,2.25838872379,0.42248811947,41.9569305767,3.54175256711,0.363636285001,0.923154218334,2.80978255865,0.0,0.0,0.0
