,theta i [rad],r orb [AU],v orb [km s-1],ang orb [rad],r L1 [AU],v i [km s-1],ang i [rad],a p [AU],e p,theta p i [rad],flag impact,v imp [km s-1],ang imp [rad]
0,0.0,0.2781,113.819332236,1.57079632679,0.131951354861,11.3819332236,1.57079632679,0.0666173402703,0.980735861349,3.14159265359,1.0,606.96652598,1.00957244801
1,0.140272208821,0.279357072377,113.541467754,1.63505125767,0.132268166914,13.0883247451,2.16160074915,0.0669893528301,0.98245941032,3.15361631953,1.0,607.027457824,1.03625944224
2,0.278066528569,0.283081712563,112.728759955,1.69811507595,0.133464955099,17.1127842155,2.56154312707,0.0682352423376,0.986976045952,3.16205242476,1.0,607.226640588,1.1114055931
3,0.411181561298,0.289141280094,111.439338447,1.75893073963,0.135164145502,21.9975705228,2.81603810572,0.0701680458426,0.99271143091,3.16409461079,1.0,607.521523535,1.22739886936
4,0.537894767858,0.297336016052,109.756863199,1.81667324646,0.137209116109,27.0161130963,2.99229615015,0.0727073620042,0.997641208207,3.15823271512,1.0,607.884914228,1.37444124803
5,0.657051331125,0.307424133267,107.7760263,1.87079236813,0.140018002272,31.8539142662,3.12510735045,0.0761012092028,0.999959974321,3.14423171383,1.0,608.332429101,1.54479711464
6,0.768045488814,0.319146770634,105.589668042,1.92100314338,0.142801411572,36.3730801944,3.23125247749,0.0799072359902,0.998473573065,3.12257513604,1.0,608.788735632,1.40572785014
7,0.870730400496,0.332248345346,103.280030778,1.96724176663,0.145337868539,40.5197728722,3.31942560724,0.0839577162999,0.992689678307,3.09441012827,1.0,609.228583672,1.19415166985
8,0.965298820454,0.346490467947,100.914517112,2.00960747815,0.148099533167,44.2843918674,3.39456881723,0.0885397157695,0.982702168039,3.06079489381,1.0,609.67731092,0.953145058516
9,1.0521666319,0.361659690479,98.5449651385,2.04830603083,0.15060103617,47.681148305,3.45974985075,0.09330085709,0.969047824871,3.02300853366,1.0,610.096591072,0.913985958917
10,1.1318763801,0.377570448261,96.2090593481,2.08360301263,0.152691156228,50.7363374683,3.51702260676,0.0980644579022,0.952507820574,2.98227983933,0.0,0.0,0.0
11,1.20502587446,0.394064792944,93.9326994307,2.11578942632,0.15462803092,53.4813578821,3.56784852006,0.10297698651,0.933839144276,2.93928177656,0.0,0.0,0.0
12,1.27221994261,0.411010287539,91.7325493873,2.14515854038,0.155928831951,55.9486196006,3.6133171847,0.107541461588,0.913950254558,2.89549194573,0.0,0.0,0.0
13,1.33404057093,0.42829704999,89.6183537733,2.17199165902,0.156913638163,58.1692678602,3.65426975569,0.111948819145,0.893428010706,2.85126069401,0.0,0.0,0.0
14,1.39103032618,0.44583457493,87.5948576395,2.19655031022,0.157090865563,60.172036262,3.69137254532,0.115591226089,0.873031221158,2.8083713949,0.0,0.0,0.0
15,1.4436847064,0.463548688435,85.6633091828,2.21907273015,0.157300310099,61.9827814087,3.72516362733,0.119261255322,0.852805845322,2.76558981059,0.0,0.0,0.0
16,1.49245013595,0.481378808689,83.8225906881,2.23977304816,0.157086582712,63.624410538,3.75608396739,0.12240089654,0.833241288789,2.72445695933,0.0,0.0,0.0
17,1.53772529974,0.499275574005,82.0700458098,2.25884205687,0.156429688936,65.1170211664,3.78449918026,0.124894085057,0.814546709693,2.68561752861,0.0,0.0,0.0
18,1.57986428572,0.517198838082,80.4020713152,2.2764488296,0.155832687614,66.4781427559,3.8107153063,0.127325118665,0.796566739744,2.64771659819,0.0,0.0,0.0
19,1.61918056286,0.535116001533,78.8145322402,2.29274271864,0.15480333252,67.7230159638,3.83499059009,0.129015963048,0.77961699691,2.61280271779,0.0,0.0,0.0
20,1.65595120643,0.553000637602,77.303047633,2.30785545398,0.153334515956,68.8648735753,3.85754447824,0.129887422648,0.763715243898,2.58140738707,0.0,0.0,0.0
21,1.69042102965,0.570831366678,75.8631831584,2.32190318173,0.151993141576,69.9152044247,3.87856461702,0.130722095758,0.748538008052,2.55123751935,0.0,0.0,0.0
22,1.72280644252,0.588590938036,74.4905774984,2.33498835866,0.150830115217,70.8839918913,3.8982123729,0.131621232325,0.734029484424,2.52188451599,0.0,0.0,0.0
23,1.75329895536,0.606265481866,73.18102226,2.34720146606,0.149897476523,71.7799243424,3.91662723865,0.132696101074,0.720132382992,2.49285273124,0.0,0.0,0.0
24,1.7820683025,0.623843900238,71.9305095896,2.35376644741,0.149247945181,72.2612861251,3.91516161983,0.133050464007,0.720460293266,2.48636095215,0.0,0.0,0.0
25,1.80926519474,0.641317370969,70.7352576264,2.34306650548,0.152786325702,71.5259195576,3.87689483683,0.136523213107,0.745920713203,2.51362490713,0.0,0.0,0.0
26,1.83502372522,0.658678942627,69.591720995,2.33302471919,0.155603839398,70.8796695677,3.84027418241,0.139053999833,0.769508234778,2.54255897123,0.0,0.0,0.0
27,1.85946346347,0.675923204235,68.4965913206,2.32358505154,0.15900095906,70.3133321231,3.80522331105,0.142715406591,0.790890776154,2.56695499511,0.0,0.0,0.0
28,1.88269127027,0.693046014042,67.446791399,2.31469752089,0.161641367758,69.8186887974,3.77166877745,0.145357361478,0.810674368426,2.59302939996,0.0,0.0,0.0
29,1.90480287059,0.710044277874,66.4394653474,2.30631744235,0.164184417739,69.3884011374,3.7395400005,0.148028555008,0.828773425231,2.61784721482,0.0,0.0,0.0
30,1.92588421372,0.726915766027,65.4719665404,2.29840477299,0.165902702509,69.0159150891,3.70876923921,0.14953525032,0.845468756341,2.64402571993,0.0,0.0,0.0
31,1.94601265143,0.743658962981,64.5418443745,2.29092354558,0.168235165965,68.6953750161,3.6792915691,0.152207132744,0.860581122697,2.66660486272,0.0,0.0,0.0
32,1.96525795814,0.760272942905,63.6468306959,2.28384137908,0.170471616006,68.4215467249,3.65104485529,0.154886401733,0.874389992479,2.6882936517,0.0,0.0,0.0
33,1.98368321613,0.77675726696,62.78482635,2.27712905463,0.171835196394,68.1897487686,3.62396971751,0.156276089662,0.887097835703,2.71130249527,0.0,0.0,0.0
34,2.0013455836,0.793111897496,61.9538882263,2.27076014814,0.173071470344,67.9957913025,3.59800948711,0.157590516095,0.898681014812,2.73337141347,0.0,0.0,0.0
35,2.01829696361,0.809337127309,61.152216921,2.26471071075,0.174991816548,67.8359217384,3.57311015318,0.160173811636,0.9091558534,2.7526474127,0.0,0.0,0.0
36,2.0345845869,0.825433520507,60.3781451726,2.25895899102,0.175993338459,67.7067765145,3.54922029988,0.161344833043,0.918769136981,2.77314931881,0.0,0.0,0.0
37,2.05025152055,0.841401862926,59.6301271109,2.25348519254,0.176871267755,67.6053383266,3.52629103558,0.162417652836,0.927513098772,2.79290832612,0.0,0.0,0.0
38,2.06533711378,0.85724312128,58.9067282868,2.24827126211,0.177626958356,67.5288982129,3.50427591394,0.163385337465,0.935459522967,2.81197410712,0.0,0.0,0.0
39,2.07987738827,0.872958408438,58.2066165206,2.24330070427,0.179135614651,67.4750219623,3.48313085008,0.165731096218,0.942629930466,2.82879723277,0.0,0.0,0.0
40,2.09390538143,0.888548954598,57.5285534932,2.23855841855,0.179666560716,67.4415203441,3.46281403174,0.16650097967,0.949178875394,2.84667608703,0.0,0.0,0.0
41,2.10745144869,0.904016083079,56.8713870503,2.23403055633,0.180079285164,67.426422726,3.44328582759,0.167147145659,0.955111470025,2.86397172052,0.0,0.0,0.0
42,2.1205435303,0.919361190078,56.2340441689,2.22970439464,0.180375173795,67.4279536864,3.42450869353,0.16766423822,0.960478677191,2.88071262239,0.0,0.0,0.0
43,2.13320738704,0.934585727376,55.6155245503,2.22556822484,0.180555606376,67.4445122732,3.40644707868,0.168047348074,0.965327273391,2.89692365499,0.0,0.0,0.0
44,2.14546680956,0.949691188405,55.0148947511,2.22161125386,0.18157259498,67.4746536007,3.38906733088,0.169950128901,0.969678818705,2.91139461291,0.0,0.0,0.0
45,2.15734380393,0.964679096078,54.4312828546,2.21782351683,0.181541216699,67.5170725114,3.37233760388,0.170081627491,0.973618240945,2.92667521148,1.0,613.605161288,1.38425547783
46,2.16885875665,0.979550992565,53.8638736121,2.21419579936,0.181398337402,67.5705890606,3.35622776626,0.170066290219,0.977157246622,2.94148206979,1.0,613.60477789,1.15587659294
47,2.18003058226,0.994308431194,53.3119039945,2.21071956828,0.182140588951,67.6341356134,3.34070931206,0.171660644629,0.980316069808,2.95479475852,1.0,613.644265379,1.0238541607
48,2.19087685474,1.00895296929,52.7746591521,2.20738690991,0.181793333278,67.7067453644,3.32575527466,0.171369410835,0.983153041383,2.96876003033,1.0,613.637107408,0.910937353001
49,2.20141392517,1.02348616207,52.2514687309,2.20419047488,0.181338394575,67.7875421141,3.31134014366,0.170922340587,0.985681218969,2.98228975644,1.0,613.626071648,0.815274163402
50,2.21165702758,1.03790955824,51.7417034876,2.20112342867,0.181815994193,67.8757311622,3.29743978448,0.17217168792,0.987918656958,2.99454654282,1.0,613.656767118,0.834684708583
51,2.22162037351,1.05222469543,51.244772227,2.1981794073,0.181163816957,67.9705911796,3.28403136212,0.171431510953,0.98990555281,3.00729526124,1.0,613.638635757,0.911290515057
52,2.23131723764,1.06643309734,50.7601189735,2.1953524774,0.181475107195,68.0714669583,3.27109326762,0.172448550406,0.991649546166,3.01890859517,1.0,613.663509001,0.977422020156
53,2.2407600345,1.08053627059,50.2872204095,2.1926371004,0.180630192942,68.1777629279,3.25860504874,0.171407204699,0.993181723349,3.03090520882,1.0,613.638037687,1.04262774385
54,2.24996038812,1.0945357029,49.8255835059,2.19002810008,0.180779175727,68.2889373624,3.2465473435,0.172181111201,0.994511070036,3.04189827931,1.0,613.656996942,1.10030899234
55,2.2589291947,1.10843286091,49.3747433732,2.18752063341,0.180855417332,68.4044971892,3.23490181778,0.172849713901,0.995659209696,3.05261775368,1.0,613.673239291,1.1548907926
56,2.26767667972,1.12222918915,48.9342612694,2.18511016401,0.179736412284,68.5239933431,3.22365110561,0.171356655328,0.996643154568,3.06355606894,1.0,613.636793344,1.20910143593
57,2.27621244936,1.13592610861,48.5037227913,2.18279243827,0.179655986767,68.6470165942,3.21277875351,0.171769793977,0.997472684624,3.07368032773,1.0,613.646941786,1.25826423569
58,2.28454553768,1.14952501619,48.0827361928,2.18056346347,0.179505413573,68.7731938088,3.20226916716,0.1720713423,0.998163183113,3.08354078898,1.0,613.654318225,1.30529313447
59,2.29268444904,1.1630272838,47.6709308583,2.17841948813,0.179285492846,68.902184583,3.19210756192,0.172259452054,0.998726516789,3.09313987594,1.0,613.658906618,1.35038373486
60,2.30063719732,1.17643425829,47.2679558769,2.17635698387,0.178997009931,69.0336782221,3.1822799155,0.172332523492,0.999173625783,3.10247972718,1.0,613.660686274,1.39369655447
61,2.30841134113,1.1897472608,46.8734787497,2.17437262913,0.177449797338,69.1673910146,3.17277292413,0.170087337714,0.999514845711,3.11176249982,1.0,613.605304013,1.43626095699
62,2.31601401655,1.20296758705,46.4871841755,2.17246329407,0.177013254245,69.3030637825,3.16357396062,0.169895923167,0.999758844812,3.12053234216,1.0,613.600514417,1.47613597717
63,2.32345196661,1.21609650696,46.1087729522,2.17062602696,0.176510509727,69.4404596662,3.15467103564,0.169587679706,0.999914621698,3.12904818161,1.0,613.592778711,1.51457492796
64,2.33073156859,1.22913526495,45.7379609449,2.1688580416,0.1759422909,69.5793621288,3.14605276083,0.169162182052,0.999990069716,3.13731131097,1.0,613.582053904,1.55165479467
65,2.33785885906,1.24208508016,45.3744781357,2.16715670585,0.17655263975,69.7195731532,3.13770831432,0.170934949751,0.999992464112,3.14534933539,1.0,613.626383694,1.55403572589
66,2.34483955662,1.25494714645,45.0180677538,2.16551953108,0.175868474718,69.8609116076,3.12962740855,0.170299301023,0.999928493866,3.1531665893,1.0,613.610595177,1.51924245317
67,2.35167908322,1.26772263301,44.6684854515,2.1639441625,0.17512084996,70.0032117724,3.12180025964,0.169545111344,0.999804348815,3.16073406084,1.0,613.591708193,1.48564340336
68,2.35838258337,1.28041268439,44.325498561,2.16242837026,0.174310441286,70.1463219992,3.11421755914,0.168673043358,0.999625744103,3.16805258806,1.0,613.569657916,1.45319951965
69,2.36495494217,1.29301842102,43.9888853884,2.16097004124,0.17343791211,70.2901034996,3.1068704471,0.167684054375,0.999397954665,3.17512293476,1.0,613.544372774,1.42187841229
70,2.37140080181,1.30554093973,43.6584345616,2.15956717148,0.173810761534,70.4344292463,3.09975048695,0.1690339589,0.999125443535,3.18225169464,1.0,613.578811374,1.39030026983
71,2.37772457676,1.31798131393,43.3339444331,2.15821785925,0.172828386312,70.5791829707,3.09284964205,0.167831045251,0.998813348254,3.1888831426,1.0,613.548149759,1.36089976831
72,2.38393046792,1.33034059416,43.0152225133,2.15692029855,0.17178572819,70.7242582562,3.08616025346,0.166513785077,0.998465558728,3.19526822709,1.0,613.514063542,1.33255526042
73,2.39002247578,1.34261980872,42.7020849446,2.1556727732,0.172027368706,70.8695577132,3.07967501915,0.16761734011,0.998085043375,3.20187914544,1.0,613.542656332,1.30314126235
74,2.39600441235,1.35481996382,42.39435602,2.15447365129,0.170878199476,71.0149922245,3.07338697459,0.1660880837,0.997676830512,3.20782817171,1.0,613.502931825,1.27661546526
75,2.40187991247,1.36694204425,42.0918677245,2.15332138008,0.169670489825,71.1604802612,3.06728947435,0.164449306378,0.9972435738,3.21353239727,1.0,613.459539345,1.25111458944
76,2.40765244434,1.37898701393,41.7944593075,2.15221448127,0.169785193762,71.3059472599,3.06137617486,0.165300655568,0.99678675367,3.21962821614,1.0,613.482189621,1.22373728966
77,2.41332531903,1.39095581614,41.5019768927,2.15115154659,0.168474133755,71.4513250491,3.05564101838,0.16345577455,0.996311917797,3.2248989218,1.0,613.43280686,1.20001207439
78,2.41890169958,1.40284937418,41.2142731024,2.15013123371,0.168510441218,71.5965513317,3.05007821767,0.164152576098,0.995818430996,3.23067079608,1.0,613.451589378,1.17386554003
79,2.42438460943,1.41466859179,40.931206713,2.14915226245,0.168514082388,71.7415692081,3.04468224178,0.164793199172,0.995310257767,3.23630804247,1.0,613.468716941,1.14818748266
80,2.42977694021,1.42641435369,40.6526423271,2.14821341118,0.16705754282,71.886326743,3.03944780255,0.16264765825,0.9947915906,3.24095837457,1.0,613.410821535,1.12698094577
81,2.43508145898,1.43808752589,40.378450074,2.14731351363,0.166985144049,72.0307765653,3.03436984207,0.163131547591,0.994260353451,3.24627283413,1.0,613.424012316,1.10251322546
82,2.44030081511,1.44968895623,40.1085053218,2.14645145571,0.166881116991,72.1748755055,3.02944352072,0.163557162308,0.993720477398,3.25145299186,1.0,613.435549786,1.07850325779
83,2.44543754666,1.46121947493,39.8426884079,2.14562617268,0.165283089679,72.3185842628,3.02466420598,0.161120331467,0.993176227991,3.25548626475,1.0,613.368665124,1.05984526211
84,2.45049408621,1.47267989485,39.5808843925,2.14483664649,0.165105259411,72.4618670968,3.02002746197,0.161389332614,0.992623974174,3.26034499132,1.0,613.376148043,1.03705534638
85,2.45547276655,1.48407101201,39.3229828195,2.14408190324,0.164896785053,72.6046915489,3.01552903942,0.161598876264,0.992067818457,3.26506985242,1.0,613.381959684,1.01472561354
86,2.46037582583,1.49539360601,39.0688774955,2.14336101084,0.163161070074,72.7470281838,3.01116486644,0.158884672989,0.991512526497,3.26848993585,1.0,613.305490856,0.998690398926
87,2.46520541248,1.50664844053,38.8184662799,2.14267307682,0.162880918451,72.8888503544,3.00693103956,0.158940058853,0.99095240901,3.27289506602,1.0,613.307077474,0.977616643035
88,2.46996358973,1.51783626353,38.5716508915,2.14201724629,0.162571057217,73.0301339822,3.00282381558,0.158935750466,0.990392099442,3.27716693755,1.0,613.306954093,0.957017353361
89,2.47465233997,1.52895780784,38.3283367211,2.14139269998,0.162231765365,73.1708573593,2.99883960363,0.158871529163,0.989832648751,3.28130571479,1.0,613.305114166,0.936897130119
90,2.47927356875,1.54001379143,38.0884326584,2.14079865246,0.161863317393,73.3110009636,2.99497495779,0.158747251227,0.989275022802,3.28531158239,1.0,613.301549386,0.917261655612
91,2.48382910861,1.55100491791,37.8518509262,2.14023435042,0.161465983428,73.4505472906,2.99122657014,0.158562848944,0.988720108965,3.28918474638,1.0,613.296249668,0.898117683143
92,2.4883207226,1.56193187673,37.6185069277,2.13969907109,0.161040029321,73.5894806963,2.98759126414,0.158318331375,0.988168722315,3.29292543517,1.0,613.289203128,0.879473024751
93,2.49275010767,1.57279534366,37.3883190987,2.13919212073,0.160585716765,73.7277872542,2.98406598841,0.158013784931,0.987621611441,3.29653390043,1.0,613.280396057,0.861336535359
94,2.49711889782,1.5835959811,37.1612087696,2.13871283322,0.160103303397,73.8654546232,2.98064781086,0.157649373666,0.987079463892,3.30001041788,1.0,613.269812892,0.843718092663
95,2.5014286671,1.59433443848,36.9371000341,2.13826056874,0.159593042899,74.0024719256,2.97733391309,0.157225339339,0.986542911283,3.303355288,1.0,613.257436178,0.826628570553
96,2.50568093239,1.60501135244,36.7159196274,2.13783471252,0.159055185093,74.1388296336,2.97412158515,0.156742001179,0.986012534079,3.30656883662,1.0,613.243246528,0.810079804941
97,2.50987715605,1.61562734733,36.4975968079,2.13743467364,0.158489976036,74.2745194662,2.97100822059,0.156199755434,0.98548886607,3.30965141548,1.0,613.227222576,0.794084549275
98,2.51401874845,1.62618303536,36.2820632472,2.13705988394,0.157897658117,74.4095342928,2.96799131168,0.155599074646,0.984972398556,3.31260340268,1.0,613.209340925,0.792139908285
99,2.51810707032,1.63667901708,36.0692529243,2.13670979697,0.157278470146,74.5438680452,2.96506844501,0.154940506678,0.984463584259,3.3154252031,1.0,613.18957609,0.806986507741
100,2.52214343498,1.64711588151,35.8591020281,2.13638388698,0.156632647433,74.6775156343,2.96223729724,0.154224673474,0.983962840979,3.31811724873,1.0,613.167900434,0.821236463512
101,2.52612911043,1.65749420649,35.651548862,2.136081648,0.155960421881,74.8104728753,2.95949563107,0.153452269603,0.983470555001,3.32067999895,1.0,613.144284096,0.834874060757
102,2.53006532138,1.66781455899,35.4465337548,2.13580259298,0.155262022064,74.9427364174,2.9568412915,0.152624060547,0.982987084264,3.32311394078,1.0,613.118694917,0.847883104675
103,2.53395325114,1.67807749538,35.2439989759,2.13554625289,0.15453767331,75.0743036793,2.95427220216,0.15174088078,0.982512761318,3.32541958908,1.0,613.09109835,0.860247063737
104,2.53779404341,1.6882835616,35.0438886556,2.13531217598,0.153787597773,75.2051727881,2.95178636197,0.150803631601,0.982047896065,3.32759748668,1.0,613.061457375,0.871949233962
105,2.54158880393,1.69843329354,34.8461487079,2.13509992702,0.153012014509,75.3353425247,2.94938184184,0.149813278796,0.981592778302,3.32964820452,1.0,613.029732394,0.882972924961
106,2.54533860217,1.7085272172,34.6507267581,2.13490908659,0.153921377001,75.464812272,2.94705678161,0.152073887731,0.981140307018,3.33373491468,1.0,613.101541552,0.907170969061
107,2.54904447279,1.718565849,34.4575720736,2.13473925041,0.153105472115,75.5935819675,2.94480938715,0.150987304071,0.980704408113,3.33557910306,1.0,613.067295214,0.917231219722
108,2.55270741713,1.72854969592,34.266635499,2.13459002867,0.152264643974,75.7216520583,2.94263792755,0.149849335772,0.98027888267,3.33729759778,1.0,613.030894828,0.92656030086
109,2.55632840456,1.73847925585,34.0778693926,2.13446104548,0.151399100455,75.8490234612,2.94054073249,0.148661183517,0.979863953703,3.33889107519,1.0,612.992292159,0.935141864036
110,2.55990837381,1.74835501768,33.8912275675,2.13435193826,0.15050904667,75.975697524,2.93851618976,0.147424101107,0.979459834335,3.34036023987,1.0,612.951435924,0.94296068755
111,2.56344823419,1.75817746164,33.7066652348,2.13426235722,0.151354622426,76.1016759905,2.93656274284,0.14953666433,0.979058024015,3.34409444017,1.0,613.020795947,0.966383261583
112,2.56694886679,1.76794705942,33.5241389497,2.13419196478,0.150425932092,76.226960968,2.93467888864,0.148205328405,0.978674452983,3.34536116456,1.0,612.977316635,0.973058914683
113,2.57041112558,1.7776642744,33.3436065599,2.13414043519,0.149473278444,76.3515548967,2.93286317536,0.146827566583,0.978302103684,3.34650542634,1.0,612.931487581,0.978920422901
114,2.57383583852,1.78732956186,33.1650271566,2.13410745394,0.148496856614,76.4754605218,2.93111420038,0.145404828855,0.977941156567,3.34752803507,1.0,612.883247292,0.983957692288
