,theta i [rad],r orb [AU],v orb [km s-1],ang orb [rad],r L1 [AU],v i [km s-1],ang i [rad],a p [AU],e p,theta p i [rad],flag impact,v imp [km s-1],ang imp [rad]
0,0.0,0.32085,105.281695474,1.57079632679,0.152235138645,10.5281695474,1.57079632679,0.0768482511655,0.980983774336,3.14159265359,1.0,608.425585257,0.968403576399
1,0.112586395453,0.321768920765,105.116522544,1.62157571998,0.152349052087,11.5355503578,2.05163531689,0.0770547424262,0.982085671994,3.1511325145,1.0,608.451013602,0.98744646569
2,0.223902018956,0.324503773396,104.628964349,1.6717478874,0.153319103666,14.0880752441,2.4165508535,0.077996919209,0.985065429827,3.15887321802,1.0,608.565316041,1.03992940824
3,0.33276831053,0.328990996084,103.841777647,1.72075011149,0.154451231935,17.4192873745,2.66940340264,0.0793202586331,0.989305183,3.16321912059,1.0,608.721240117,1.12364162291
4,0.43817472699,0.335131405766,102.789449336,1.76810073064,0.156327566213,21.0357611849,2.85028090697,0.0813340673347,0.993800838503,3.16317475245,1.0,608.948712321,1.23066573157
5,0.539326953755,0.342798854036,101.513980922,1.81342230784,0.158531605757,24.6812752345,2.9875416844,0.0838273311125,0.997574101216,3.15813514418,1.0,609.21509178,1.35720000885
6,0.635664271877,0.351849929369,100.060474832,1.85644986046,0.160956377719,28.2232924013,3.09720804564,0.0867449232276,0.999736064243,3.14799894505,1.0,609.507228689,1.49960583877
7,0.726850058314,0.362133251765,98.4733095329,1.89702610245,0.163485585792,31.5925325236,3.18826497236,0.09001952181,0.999636464242,3.13301943758,1.0,609.812408681,1.48569782243
8,0.812743652737,0.373497342485,96.7933466603,1.93508770968,0.165998822593,34.7547804317,3.26598536395,0.0935712414342,0.996909771209,3.11368367712,1.0,610.119113397,1.31568569584
9,0.893362705144,0.385796579657,95.056264478,1.97064703517,0.168761870935,37.6966655599,3.33364698036,0.0975649513006,0.991447412695,3.09049569966,1.0,610.437151247,1.12865740051
10,0.968843604933,0.398895196485,93.2918689866,2.00377295504,0.17129734044,40.4176018646,3.39340804143,0.101681374873,0.983371005242,3.06413265324,1.0,610.738662098,0.917833298493
11,1.03940507163,0.412669564306,91.5241229015,2.03457329562,0.173907798232,42.9247789419,3.44676702227,0.10611312593,0.972919839709,3.03502511975,1.0,611.036973397,0.910058201766
12,1.10531754682,0.427009133156,89.7716235058,2.06318010445,0.176103870652,45.2298889559,3.49481383104,0.110479059798,0.960499559253,3.00396645596,1.0,611.307326183,1.32312194881
13,1.16687916793,0.44181641536,88.0483075632,2.08973812806,0.178230249621,47.3469552152,3.53837283593,0.115006998142,0.946461185093,2.97120391462,0.0,0.0,0.0
14,1.22439797528,0.457006351135,86.3642258288,2.11439631398,0.179783283328,49.2909049477,3.57808777545,0.11923952708,0.931314945934,2.93767891499,0.0,0.0,0.0
15,1.27817943083,0.472505318984,84.7262899121,2.1373018815,0.181150691978,51.0766561458,3.61447429688,0.123448813023,0.915359216181,2.90343136992,0.0,0.0,0.0
16,1.3285181692,0.488249982331,83.1389399233,2.15859643194,0.182299547139,52.7185594872,3.64795382364,0.127569090716,0.898928625622,2.86882204807,0.0,0.0,0.0
17,1.37569294133,0.504186097996,81.604712712,2.1784135923,0.183202760582,54.2300818599,3.67887626547,0.131533529683,0.882313245114,2.83419292156,0.0,0.0,0.0
18,1.41996387358,0.520267366367,80.1247089634,2.19687776601,0.183838222866,55.623650965,3.70753582712,0.135274695282,0.865755559162,2.7998725296,0.0,0.0,0.0
19,1.46157133686,0.536454366486,78.6989675781,2.21410365001,0.183651048777,56.9106041239,3.7341823918,0.13811693513,0.849687471211,2.76743763658,0.0,0.0,0.0
20,1.50073589386,0.55271359702,77.3267599126,2.23019626139,0.18368460327,58.1012020265,3.75902996806,0.141164454132,0.833804416889,2.73485438434,0.0,0.0,0.0
21,1.53765893377,0.569016628885,76.0068174389,2.24525128629,0.18340676579,59.2046807391,3.78226312117,0.143790686497,0.818434820721,2.70352201146,0.0,0.0,0.0
22,1.57252371751,0.585339366553,74.7375055575,2.25935561822,0.183394620936,60.2293242516,3.8040419771,0.146684288494,0.80337233246,2.67193665046,0.0,0.0,0.0
23,1.60549664134,0.601661409837,73.5169547329,2.27258799471,0.182485897729,61.1825460533,3.82450618619,0.14834057171,0.789220074507,2.64378660823,0.0,0.0,0.0
24,1.63672859201,0.617965506867,72.3431582181,2.2850196719,0.181863727457,62.0709725742,3.84377811037,0.150255383168,0.775429043659,2.61553763305,0.0,0.0,0.0
25,1.66635630773,0.634237086509,71.214044032,2.29671509703,0.180938512939,62.9005240844,3.86196541666,0.151636043411,0.762293999406,2.58923480906,0.0,0.0,0.0
26,1.69450369412,0.65046386018,70.1275271969,2.30773255522,0.179707737979,63.6764906437,3.87789455479,0.152444775801,0.750627231236,2.5659799452,0.0,0.0,0.0
27,1.72128306572,0.666635484043,69.0815469352,2.31812477698,0.17883715176,64.4036019218,3.88238640956,0.153633928941,0.746191824167,2.54971698449,0.0,0.0,0.0
28,1.74679629489,0.682743271408,68.074092613,2.32793949861,0.177690946451,65.0860903852,3.88655347606,0.154284713338,0.742274393685,2.53563889874,0.0,0.0,0.0
29,1.77113586456,0.698779949261,67.1032211607,2.33721997401,0.176968300448,65.7277479721,3.89041534704,0.155451085198,0.738527233887,2.52071282838,0.0,0.0,0.0
30,1.7943858229,0.714739451245,66.1670682181,2.34600543779,0.175286457051,66.3319765195,3.89399060476,0.15500503473,0.735507805583,2.51106852759,0.0,0.0,0.0
31,1.81662264481,0.730616742151,65.26385461,2.35433152206,0.174060850568,66.9018324404,3.89729676362,0.155130614866,0.732584518562,2.50037343577,0.0,0.0,0.0
32,1.83791600463,0.746407668172,64.3918894628,2.35015835085,0.176328543331,66.6633032444,3.87575438708,0.157870315526,0.746513750268,2.51255545259,0.0,0.0,0.0
33,1.85832946858,0.762108830008,63.5495708405,2.34265671317,0.179274855012,66.2308556925,3.84769360607,0.160961402429,0.764470695123,2.53221341523,0.0,0.0,0.0
34,1.87792111292,0.777717474478,62.7353846653,2.33552563673,0.181389566238,65.8434642942,3.82062169964,0.162859354409,0.781456910243,2.55413408717,0.0,0.0,0.0
35,1.89674407545,0.793231402095,61.9479024336,2.32874054658,0.183419878895,65.4973730859,3.79450121723,0.164759712501,0.797294495645,2.57508772555,0.0,0.0,0.0
36,1.91484704726,0.808648888106,61.1857781297,2.32227896572,0.186175424828,65.1891517702,3.76929588209,0.167969785915,0.811877696096,2.5923733548,0.0,0.0,0.0
37,1.93227471087,0.823968614933,60.4477446309,2.31612030546,0.188052902259,64.9156671082,3.74497058854,0.169886032754,0.82565624857,2.61177188479,0.0,0.0,0.0
38,1.94906813099,0.839189614351,59.7326098177,2.31024567868,0.189846704714,64.6740566185,3.72149139833,0.171789002656,0.838498658916,2.63043861738,0.0,0.0,0.0
39,1.96526510261,0.854311217581,59.0392525623,2.30463773382,0.191557275192,64.4617044774,3.69882553546,0.1736737087,0.850466926151,2.64843407529,0.0,0.0,0.0
40,1.98090046218,0.869333012962,58.3666186697,2.29928050666,0.193185119189,64.2762194774,3.67694137774,0.175535388168,0.861618937887,2.66581086575,0.0,0.0,0.0
41,1.99600636504,0.884254809008,57.7137169031,2.29415928837,0.194730793982,64.1154149228,3.65580844618,0.177369469629,0.872008722742,2.68261495164,0.0,0.0,0.0
42,2.0106125336,0.899076602827,57.0796151104,2.2892605076,0.196194899535,63.9772903079,3.63539739097,0.179171546368,0.881686696975,2.69888667692,0.0,0.0,0.0
43,2.02474647952,0.913798552905,56.4634365003,2.28457162516,0.197578070731,63.8600146429,3.61567997437,0.180937355093,0.890699901742,2.71466160124,0.0,0.0,0.0
44,2.03843370242,0.928420955282,55.8643561053,2.28008103985,0.197951620348,63.7619112956,3.59662905121,0.181100950099,0.899175392399,2.73205043228,0.0,0.0,0.0
45,2.05169786874,0.942944223548,55.2815974044,2.2757780039,0.199160396831,63.6814442114,3.57821854601,0.182747958272,0.906979189363,2.74685304547,0.0,0.0,0.0
46,2.06456097189,0.95736887104,54.7144291604,2.27165254731,0.200290389716,63.6172054032,3.56042342836,0.184346156943,0.914242005869,2.76124602078,0.0,0.0,0.0
47,2.07704347619,0.971695495382,54.1621624487,2.26769540992,0.201342315152,63.5679035908,3.54321968654,0.185891779829,0.920999476554,2.77525126102,0.0,0.0,0.0
48,2.08916444717,0.985924765649,53.6241478513,2.26389798006,0.201329987493,63.532353886,3.52658429855,0.185695013546,0.927340819657,2.79070546357,0.0,0.0,0.0
49,2.10094166816,1.00005741046,53.0997728659,2.26025223964,0.202213816055,63.5094684315,3.51049520305,0.187089624954,0.933179034034,2.80393249473,0.0,0.0,0.0
50,2.11239174637,1.01409420834,52.5884594604,2.25675071435,0.203021868876,63.4982479018,3.4949312683,0.188420707052,0.938605788022,2.81682672251,0.0,0.0,0.0
51,2.12353020834,1.02803597896,52.0896618103,2.25338642882,0.203754884072,63.4977737878,3.47987226098,0.189684922977,0.943648125275,2.82940221956,0.0,0.0,0.0
52,2.13437158632,1.04188357542,51.602864197,2.25015286615,0.203370673253,63.5072013903,3.46529881466,0.189068264783,0.94836836474,2.84326112387,0.0,0.0,0.0
53,2.14492949703,1.05563787809,51.1275790307,2.247043931,0.203942057916,63.5257534564,3.45119239757,0.19015432738,0.952711760628,2.85518309736,0.0,0.0,0.0
54,2.15521671255,1.06929978855,50.6633450429,2.24405391645,0.204440705718,63.5527143984,3.43753528116,0.191164166616,0.95674208495,2.86682220101,0.0,0.0,0.0
55,2.16524522538,1.08287022501,50.2097255767,2.24117747367,0.204867345285,63.5874250389,3.42431050811,0.192094919942,0.960479914287,2.87818774237,0.0,0.0,0.0
56,2.17502630703,1.09635011769,49.7663070262,2.23840958447,0.205222700135,63.6292778332,3.41150186158,0.1929438405,0.963944481506,2.88928817016,0.0,0.0,0.0
57,2.18457056202,1.10974040548,49.3326973601,2.23574553624,0.204396636692,63.6777125247,3.39909383414,0.191743794438,0.96717536378,2.90146758181,0.0,0.0,0.0
58,2.19388797661,1.1230420323,48.9085247763,2.23318089919,0.204598253592,63.7322121891,3.38707159824,0.192388161211,0.970143653815,2.91201258963,0.0,0.0,0.0
59,2.20298796378,1.13625594476,48.493436425,2.23071150552,0.204730806336,63.7922996357,3.37542097648,0.192943638997,0.97288947033,2.92231433505,0.0,0.0,0.0
60,2.21187940398,1.14938308932,48.0870972473,2.22833343041,0.204794990377,63.8575341268,3.36412841362,0.193408081948,0.975427486077,2.93237855542,0.0,0.0,0.0
61,2.22057068272,1.16242441049,47.6891888772,2.22604297463,0.204791493239,63.9275083894,3.35318094877,0.19377949477,0.977771423377,2.94221048935,1.0,614.124843075,1.29784930048
62,2.22906972502,1.17538084901,47.299408624,2.22383664861,0.204720994236,64.0018458908,3.34256618871,0.194056039737,0.979934116679,2.95181492568,1.0,614.130156059,1.15819671058
63,2.23738402674,1.18825334014,46.9174685364,2.22171115785,0.204584164195,64.0801983505,3.33227228239,0.194236043427,0.981927570735,2.96119624732,1.0,614.133606139,1.05565514219
64,2.24552068385,1.2010428126,46.5430945126,2.21966338948,0.204381665348,64.1622434722,3.32228789589,0.194318003435,0.983763014888,2.97035847105,1.0,614.135174919,0.970917480321
65,2.25348641889,1.21375018717,46.1760254914,2.21769039999,0.20411415115,64.2476828691,3.31260218887,0.194300594513,0.985450953577,2.97930528306,1.0,614.134841809,0.89726152523
66,2.2612876056,1.2263763759,45.8160126838,2.21578940386,0.203782266233,64.3362401699,3.30320479159,0.194182674463,0.987001213525,2.98804007145,1.0,614.1325839,0.831396867946
67,2.26893029169,1.23892228137,45.4628188597,2.21395776313,0.203386646372,64.4276592867,3.29408578297,0.193963289493,0.98842298775,2.99656595552,1.0,614.128375834,0.799374142024
68,2.27642021951,1.25138879576,45.1162176921,2.21219297782,0.202927918425,64.5217028279,3.2852356698,0.19364167889,0.989724876651,3.00488581229,1.0,614.122189672,0.854674230741
69,2.28376284563,1.26377680063,44.7759931278,2.21049267698,0.202406700409,64.618150649,3.27664536646,0.193217279242,0.990914926457,3.01300230083,1.0,614.113994753,0.906131653711
70,2.29096335846,1.27608716614,44.4419388191,2.20885461052,0.201823601472,64.7167985203,3.26830617602,0.192689727731,0.992000665117,3.02091788412,1.0,614.10375755,0.954344781055
71,2.29802669493,1.28832075084,44.1138575783,2.20727664167,0.201179221987,64.8174569095,3.26020977181,0.19205886484,0.992989135929,3.02863484919,1.0,614.091441513,0.999760435417
72,2.30495755579,1.30047840147,43.7915608703,2.20575673988,0.201775933803,64.9199498644,3.25234817998,0.193710148173,0.993883529521,3.03546772971,1.0,614.123508401,1.03897467291
73,2.31176041977,1.31256095252,43.4748683471,2.20429297437,0.201022854243,65.0241139847,3.24471376302,0.192892639155,0.994697191011,3.04283343163,1.0,614.107701719,1.08005213705
74,2.31843955677,1.32456922614,43.1636074012,2.20288350809,0.200210168983,65.1297974812,3.23729920383,0.191971197394,0.995432071646,3.05000617707,1.0,614.089723597,1.11914008329
75,2.32499904021,1.33650403221,42.8576127495,2.2015265921,0.200676286793,65.2368593106,3.23009749061,0.193416763767,0.996091527394,3.05641836238,1.0,614.11785118,1.15350065603
76,2.3314427583,1.34836616798,42.5567260515,2.20022056039,0.199757956505,65.3451683776,3.22310190269,0.192305427955,0.996684954362,3.06324918516,1.0,614.096264697,1.18936372453
77,2.33777442471,1.36015641821,42.2607955406,2.19896382505,0.198781624384,65.4546028045,3.21630599674,0.191091124212,0.997214781046,3.06989176199,1.0,614.072390235,1.22367935126
78,2.34399758843,1.37187555514,41.9696756851,2.19775487174,0.199121082285,65.5650492557,3.20970359388,0.192320804901,0.997684248773,3.0758937766,1.0,614.096565084,1.25432374467
79,2.35011564308,1.38352433859,41.683226865,2.19659225555,0.198042028167,65.6764023187,3.20328876725,0.190916108012,0.998100051527,3.08220226192,1.0,614.068924118,1.28605893191
80,2.35613183531,1.39510351587,41.4013150755,2.19547459702,0.19690650798,65.7885639301,3.19705583043,0.189411028063,0.998464722101,3.08832654661,1.0,614.038851477,1.31651452343
81,2.36204927301,1.40661382198,41.1238116418,2.19440057859,0.197123063882,65.9014428487,3.19099932619,0.190417682548,0.99878125269,3.09392720621,1.0,614.05901801,1.34413124673
82,2.36787093275,1.41805597973,40.8505929511,2.19336894108,0.195887618576,66.0149541701,3.18511401589,0.188724547759,0.999054459739,3.09972419387,1.0,614.0249753,1.37241106415
83,2.37359966676,1.42943069976,40.5815402073,2.19237848065,0.196028039668,66.1290188755,3.17939486953,0.189594032171,0.999286404358,3.10507389328,1.0,614.042533615,1.39832810241
84,2.37923820953,1.44073868072,40.3165391922,2.19142804569,0.196136602949,66.2435634176,3.17383705607,0.190414787063,0.999480663777,3.11031750589,1.0,614.05896031,1.42354124356
85,2.38478918395,1.45198060941,40.0554800446,2.19051653415,0.19476016761,66.3585193374,3.16843593443,0.188445291913,0.999640145395,3.1156491175,1.0,614.019301541,1.44898122642
86,2.39025510715,1.46315716102,39.7982570499,2.18964289086,0.194794702906,66.4738229097,3.16318704477,0.189125333902,0.99976705973,3.12064569333,1.0,614.033088871,1.47269648354
87,2.39563839578,1.47426899911,39.5447684463,2.18880610514,0.193322567252,66.5894148141,3.1580861004,0.186973575167,0.999864143031,3.12565931935,1.0,613.989119147,1.49634913271
88,2.40094137117,1.48531677594,39.2949162358,2.18800520847,0.193284471151,66.7052398324,3.1531289799,0.18751208377,0.999933520388,3.13041147823,1.0,614.000218173,1.51866830202
89,2.40616626408,1.49630113254,39.0486060107,2.18723927237,0.19321606798,66.8212465667,3.14831171978,0.187998318901,0.999977444548,3.13506007273,1.0,614.010185011,1.54040266445
90,2.41131521921,1.507222699,38.8057467856,2.1865074064,0.191608897498,66.9373871799,3.14363050737,0.185579981347,0.999997925768,3.13962100343,1.0,613.960096249,1.56163936613
91,2.41639029935,1.51808209452,38.5662508435,2.1858087562,0.191469819564,67.0536171526,3.13908167421,0.185923950168,0.999996850298,3.14402873357,1.0,613.967300291,1.55950207416
92,2.42139348941,1.52887992768,38.3300335864,2.18514250179,0.1913012981,67.1698950605,3.13466168964,0.186214317211,0.99997599889,3.14833427525,1.0,613.973360923,1.53959076639
93,2.42632670013,1.53961679661,38.0970133953,2.18450785583,0.19110359222,67.2861823656,3.13036715479,0.186450568646,0.99993703399,3.1525379993,1.0,613.978278064,1.52020782784
94,2.43119177162,1.55029328917,37.8671114971,2.18390406207,0.189325112253,67.402443224,3.1261947968,0.183687927823,0.999881566999,3.15651792944,1.0,613.919985382,1.50190142254
95,2.43599047664,1.56090998314,37.6402518409,2.18333039388,0.189059173001,67.5186443057,3.1221414634,0.183782745071,0.999810987505,3.16048532705,1.0,613.922015194,1.48369905348
96,2.44072452377,1.57146744637,37.4163609777,2.18278615281,0.188764864304,67.6347546287,3.11820411766,0.183822991438,0.999726698358,3.16435230064,1.0,613.922876138,1.46599560771
97,2.44539556035,1.58196623703,37.1953679486,2.18227066731,0.188442430518,67.7507454039,3.1143798331,0.183808398888,0.999629989424,3.16811923673,1.0,613.922564021,1.44878349348
98,2.45000517529,1.59240690377,36.9772041767,2.18178329145,0.188092112646,67.8665898912,3.11066578895,0.183738753764,0.999522071147,3.17178652829,1.0,613.921073706,1.4320558488
99,2.45455490168,1.60278998587,36.761803368,2.18132340377,0.18771414839,67.9822632651,3.10705926568,0.183613897692,0.999404079218,3.17535457575,1.0,613.918399111,1.41580647153
100,2.45904621931,1.61311601346,36.5491014135,2.18089040614,0.187308772236,68.09774249,3.10355764076,0.183433728407,0.999277078973,3.17882378795,1.0,613.914533189,1.40002975517
101,2.46348055701,1.62338550768,36.339036299,2.18048372275,0.185251204996,68.2130062042,3.10015838458,0.180100725726,0.999142425705,3.18184131686,1.0,613.84161679,1.38633674338
102,2.46785929492,1.6335989809,36.1315480171,2.18010279907,0.184781472236,68.3280346117,3.09685905659,0.179785190163,0.999000392468,3.18508226183,1.0,613.834573243,1.37163820154
103,2.47218376658,1.64375693681,35.9265784866,2.17974710095,0.184285067919,68.4428093806,3.09365730164,0.179415384742,0.998852167696,3.18822594997,1.0,613.82628662,1.35739771214
104,2.47645526093,1.65385987067,35.7240714731,2.1794161137,0.183762213793,68.5573135495,3.09055084644,0.178991464744,0.99869857555,3.19127283609,1.0,613.816745131,1.34361150147
105,2.48067502421,1.66390826943,35.5239725149,2.17910934127,0.183213128708,68.6715314396,3.08753749628,0.178513641871,0.998540388704,3.19422338732,1.0,613.805935905,1.33027612557
106,2.48484426183,1.67390261198,35.3262288514,2.17882630544,0.182638028683,68.7854485731,3.08461513177,0.177982184106,0.99837833146,3.19707808375,1.0,613.793844957,1.3173884288
107,2.48896413997,1.68384336918,35.130789357,2.17856654506,0.182037126953,68.8990515956,3.08178170588,0.177397415384,0.998213082701,3.19983741893,1.0,613.780457168,1.30494550492
108,2.49303578729,1.69373100413,34.9376044759,2.17832961535,0.181410634038,69.0123282058,3.07903524098,0.176759715161,0.998045278673,3.20250190039,1.0,613.76575625,1.29294465984
109,2.49706029645,1.7035659723,34.7466261612,2.17811508719,0.182464029027,69.1252670882,3.07637382615,0.179334607642,0.997874654083,3.20567178482,1.0,613.824471998,1.27860964574
110,2.50103872556,1.71334872167,34.5578078163,2.1779225465,0.181796767233,69.2378578508,3.07379561447,0.178608308257,0.997703393875,3.20817754426,1.0,613.80808204,1.26734490201
111,2.50497209961,1.72307969291,34.3711042398,2.1777515936,0.181104478209,69.3500909667,3.07129882059,0.177829357184,0.997531244381,3.21058973432,1.0,613.79035464,1.2565161442
112,2.50886141175,1.73275931947,34.1864715722,2.17760184267,0.180387362569,69.4619577196,3.06888171826,0.176998334514,0.99735869435,3.21290891804,1.0,613.771269592,1.24612125801
113,2.5127076246,1.74238802781,34.0038672456,2.17747292113,0.179645618472,69.5734501528,3.06654263809,0.176115873393,0.997186201539,3.21513567427,1.0,613.750805385,1.23615818646
114,2.51651167143,1.7519662375,33.8232499346,2.17736446917,0.178879441662,69.6845610215,3.06427996532,0.175182658765,0.997014194671,3.21727059796,1.0,613.728939155,1.22662490142
115,2.52027445729,1.76149436133,33.6445795113,2.17727613922,0.178089025522,69.7952837477,3.06209213781,0.174199425965,0.996843075278,3.21931430034,1.0,613.705646634,1.21751937649
116,2.52399686013,1.77097280552,33.4678170004,2.17720759549,0.177274561122,69.9056123787,3.05997764393,0.173166959205,0.996673219429,3.22126740924,1.0,613.680902099,1.20883956116
