,theta i [rad],r orb [AU],v orb [km s-1],ang orb [rad],r L1 [AU],v i [km s-1],ang i [rad],a p [AU],e p,theta p i [rad],flag impact,v imp [km s-1],ang imp [rad]
0,0.0,0.16695,149.337921707,1.57079632679,0.0792135170233,14.9337921707,1.57079632679,0.0400049823597,0.980091287406,3.14159265359,1.0,599.62275975,1.13255740421
1,0.303022314727,0.170648410499,147.631194318,1.71488269692,0.0801142222859,24.2112679208,2.63736431201,0.0411459032608,0.98790047608,3.16425567713,1.0,600.13540562,1.22826698655
2,0.581929266025,0.181131887799,143.076058476,1.84719900528,0.0828601364806,39.1792776894,3.05876951339,0.0446285585038,0.999088885479,3.15342121594,1.0,601.535900929,1.47461435669
3,0.823154663171,0.196935696629,136.897685719,1.96114937316,0.086147050231,52.6730287532,3.29031101021,0.0497773461554,0.994869734911,3.10190910884,1.0,603.242963217,1.3287058468
4,1.02471455939,0.21643628383,130.210316856,2.05580798224,0.0892610138729,63.6737037765,3.44807901515,0.0560627059392,0.969995289739,3.02035260782,1.0,604.897221596,0.915038117573
5,1.19111710019,0.238290759082,123.694310495,2.13341319182,0.0911181922835,72.3864017569,3.56552195897,0.0623264823899,0.931076321682,2.92319459783,1.0,606.210639945,1.29666406078
6,1.32873504199,0.261538214731,117.660009102,2.19709859949,0.0916300095014,79.2675314487,3.65708430811,0.0678153941852,0.887105328209,2.82250477747,0.0,0.0,0.0
7,1.44353911608,0.285537785025,112.201327044,2.24978750005,0.0908919121003,84.7490063992,3.73070206739,0.0718908440465,0.844305254721,2.72730596981,0.0,0.0,0.0
8,1.54041474913,0.30987539329,107.30893337,2.29386388839,0.0893334514699,89.1733828867,3.79130493695,0.0744786573608,0.805347879027,2.64226876014,0.0,0.0,0.0
9,1.6231533823,0.334287084026,102.932484116,2.33117238418,0.0873362701324,92.7964152023,3.84216396423,0.0757825395955,0.770765945628,2.56888337839,0.0,0.0,0.0
10,1.69464433123,0.358605804425,99.010332295,2.34927426909,0.0868694792088,94.4363829514,3.884940707,0.0770851421556,0.741201301806,2.51439856338,0.0,0.0,0.0
11,1.75708506641,0.382726723882,95.4822913015,2.321634961,0.092329474996,91.7397223466,3.86209246624,0.0821222629096,0.755937070232,2.52978601678,0.0,0.0,0.0
12,1.81215664437,0.406585109937,92.2943655118,2.2974875508,0.0968641253758,89.6698576673,3.7772002402,0.0863106834336,0.807978475069,2.59594690516,0.0,0.0,0.0
13,1.86115733113,0.430142249202,89.3999109735,2.27620726544,0.101184618286,88.094251906,3.69971946572,0.0907435689919,0.850434570243,2.65518021458,0.0,0.0,0.0
14,1.9051008743,0.453376429731,86.7593275232,2.25730751396,0.104380964942,86.9094896992,3.62891479801,0.0939103369878,0.88513108049,2.71328956989,0.0,0.0,0.0
15,1.94478795594,0.476277107956,84.3392329117,2.24040495245,0.107269624087,86.0347727401,3.56411586463,0.097059466155,0.913076689018,2.7663300878,0.0,0.0,0.0
16,1.98085813184,0.498841090621,82.1115312031,2.22519414613,0.109854900042,85.406802164,3.50471453611,0.100145052832,0.93542667527,2.81529530487,0.0,0.0,0.0
17,2.01382779992,0.521070009945,80.0525403699,2.2114290852,0.111620607982,84.9758134304,3.45016211023,0.102246605566,0.953175737882,2.86223806929,0.0,0.0,0.0
18,2.04411818681,0.542968635248,78.1422345533,2.19890958676,0.11305053195,84.7025260718,3.39996594626,0.104102698393,0.967056293711,2.90593088596,1.0,610.904812451,1.03811189949
19,2.07207618257,0.5645437358,76.3636087632,2.18747119063,0.11415199195,84.5558033824,3.35368553952,0.105672700596,0.977738406524,2.94677647119,1.0,611.008453408,0.797017832286
20,2.09799001061,0.585803308906,74.702155706,2.17697757366,0.114932386298,84.510856893,3.31092822711,0.106920071041,0.985777858433,2.98506864833,1.0,611.088614574,0.956762941167
21,2.12210113802,0.606756054971,73.1454384122,2.16731479417,0.115399054906,84.5478665977,3.27134474644,0.10781254106,0.991635799204,3.02102223673,1.0,611.144823758,1.11039464665
22,2.14461341924,0.627411018782,71.6827423097,2.15838688084,0.115559192095,84.650917849,3.23462484575,0.108322500608,0.995694968024,3.05479356705,1.0,611.176523717,1.2452577812
23,2.16570018687,0.647777346224,70.3047918344,2.15011241767,0.116068218673,84.8071794726,3.20049308638,0.109577643713,0.998271960412,3.08618507588,1.0,611.253281956,1.36545485511
24,2.18550980141,0.66786411982,69.0035192169,2.14242187551,0.115656154404,85.0062659223,3.16870493046,0.109298672848,0.999633728377,3.11605777834,1.0,611.2363747,1.47686935473
25,2.20417003439,0.687680249443,67.7718752134,2.13525550792,0.115645933394,85.2397401994,3.13904316179,0.109817988406,0.9999967592,3.14400684579,1.0,611.267778987,1.56195274764
26,2.22179155908,0.707234401059,66.6036736041,2.12856167806,0.115394607567,85.5007247729,3.11131465797,0.109969566333,0.999542772218,3.17037651341,1.0,611.276889054,1.46550097902
27,2.23847075377,0.726534953137,65.4934628234,2.12229551714,0.114907435652,85.7835956845,3.08534750801,0.10974172418,0.998422165342,3.19518746461,1.0,611.263185822,1.37455085089
28,2.25429196869,0.745589970778,64.4364196129,2.1164178412,0.114935796944,86.0837409465,3.06098846052,0.110498754432,0.996758484043,3.2189531944,1.0,611.308497075,1.2866840201
29,2.26932937384,0.764407194094,63.4282604044,2.11089426956,0.114010688289,86.3973688832,3.03810067423,0.109527711715,0.994658470892,3.24083353673,1.0,611.250262149,1.20457995255
30,2.28364847396,0.78299403461,62.4651672475,2.10569450297,0.113647788515,86.7213553859,3.01656174565,0.109614064817,0.992204425907,3.26199841483,1.0,611.255482901,1.12354180645
31,2.29730735964,0.80135757871,61.5437255268,2.10079172855,0.113104528861,87.0531216714,2.99626198192,0.109379599213,0.989470363251,3.28193897942,1.0,611.241288237,1.04514896785
32,2.31035774614,0.819504594908,60.660871415,2.09616212626,0.112384519783,87.3905360183,2.97710289222,0.108820699301,0.986516610702,3.30064639926,1.0,611.207204127,0.969193360731
33,2.32284584088,0.837441543875,59.8138473322,2.09178445745,0.111491222346,87.7318344531,2.95899587087,0.107937061992,0.983393652722,3.31810922337,1.0,611.152591985,0.895529129581
34,2.33481307229,0.855174590601,59.0001640157,2.08763971964,0.111283986573,88.0755564816,2.9418610476,0.108342785369,0.980134663726,3.335828894,1.0,611.177778447,0.817028393984
35,2.3462967041,0.872709616483,58.2175681519,2.08371085587,0.110071489001,88.4204927828,2.92562628483,0.106845285903,0.976791197406,3.35093468232,1.0,611.08386161,0.824352407744
36,2.35733035724,0.89005223326,57.4640145473,2.07998250826,0.109586016562,88.7656425206,2.9102263006,0.106713311217,0.973373562337,3.36661717862,1.0,611.075457627,0.902936683607
37,2.36794445383,0.907207795989,56.7376422081,2.07644080858,0.108973915309,89.1101783395,2.89560190258,0.106333772646,0.969915381665,3.38134957275,1.0,611.051172174,0.983419057688
38,2.37816659725,0.924181416272,56.0367536508,2.07307319913,0.108237469068,89.4534175853,2.88169931731,0.105706536976,0.966436979919,3.39511945542,1.0,611.010652977,1.06727535779
39,2.38802189869,0.940977975066,55.3597969625,2.06986827922,0.107378873947,89.7947985586,2.86846960234,0.104833441228,0.962955454963,3.40791421046,1.0,610.953439536,1.1571539721
40,2.39753325878,0.957602135054,54.705350192,2.06681567275,0.106400243169,90.1338608591,2.85586813017,0.103718289984,0.959485376138,3.41972119684,1.0,610.878955488,1.25891033499
41,2.40672161149,0.974058352552,54.0721077215,2.06390591387,0.106278645022,90.470229071,2.84385413455,0.104225880043,0.956019818495,3.4332875298,1.0,610.913057596,1.45339126408
42,2.41560613581,0.990350888511,53.4588683476,2.06113034773,0.105082282433,90.803599173,2.83239031114,0.102662117108,0.952603609827,3.44326443926,0.0,0.0,0.0
43,2.42420444069,1.00648381961,52.8645247899,2.05848104396,0.104779102324,91.1337272063,2.82144246485,0.102795255547,0.949207594329,3.45534422489,0.0,0.0,0.0
44,2.43253272645,1.02246104819,52.2880544718,2.05595072122,0.104395428339,91.4604197815,2.81097919851,0.102764340561,0.945857413537,3.46675868583,0.0,0.0,0.0
45,2.44060592647,1.03828631161,51.7285113808,2.05353268107,0.102893244109,91.7835261135,2.80097163733,0.100563420957,0.942579159396,3.4740023932,0.0,0.0,0.0
46,2.44843783203,1.05396319157,51.1850188422,2.05122074975,0.102336772384,92.1029313348,2.79139318418,0.100165492193,0.93933373779,3.48387469155,0.0,0.0,0.0
47,2.45604120233,1.06949512246,50.6567631211,2.04900922701,0.101703746422,92.4185508535,2.78221930248,0.0996066721343,0.936146673979,3.49305661132,0.0,0.0,0.0
48,2.46342786179,1.08488539904,50.142987734,2.04689284077,0.10099534351,92.7303255874,2.77342732305,0.0988887908589,0.93302072092,3.50154074548,0.0,0.0,0.0
49,2.47060878661,1.10013718438,49.6429883518,2.04486670703,0.10021270255,93.038217947,2.76499627149,0.0980145345111,0.929958300133,3.50932004552,0.0,0.0,0.0
50,2.47759418148,1.11525351637,49.1561082742,2.0429262942,0.100473295845,93.3422084152,2.75690671455,0.0991379461384,0.926930117661,3.52082538738,0.0,0.0,0.0
51,2.48439354823,1.13023731474,48.6817343463,2.04106739132,0.0995604502368,93.6422926619,2.74914062217,0.0979793517717,0.923994658129,3.52736526633,0.0,0.0,0.0
52,2.49101574688,1.14509138684,48.2192933196,2.03928607983,0.0985764418121,93.9384790778,2.74168124432,0.0966730431508,0.921127386794,3.53318192167,0.0,0.0,0.0
53,2.49746905069,1.15981843377,47.7682485538,2.0375787081,0.0986832562355,94.2307866913,2.734513,0.0974639979345,0.918294345325,3.54327857521,0.0,0.0,0.0
54,2.50376119518,1.17442105549,47.3280970675,2.03594186881,0.0975745282562,94.51924338,2.72762137789,0.0958852675274,0.915558033872,3.54782363463,0.0,0.0,0.0
55,2.50989942254,1.18890175627,46.8983668526,2.03437237848,0.0975875376814,94.8038843618,2.72099284637,0.0964723147861,0.912856401349,3.55702179586,0.0,0.0,0.0
56,2.51589052141,1.20326294913,46.4786144669,2.03286725914,0.0963573994722,95.0847508926,2.7146147729,0.0946324077674,0.910252731747,3.56027740748,0.0,0.0,0.0
57,2.52174086302,1.21750696068,46.06842283,2.03142372171,0.096279335378,95.3618891709,2.70847535066,0.0950159092698,0.907678979351,3.56856151113,0.0,0.0,0.0
58,2.52745643359,1.23163603499,45.6673992458,2.03003915111,0.0961637806661,95.635349387,2.70256353267,0.0953229391076,0.90517253808,3.5764795109,0.0,0.0,0.0
59,2.53304286408,1.24565233802,45.27517358,2.02871109262,0.0947643482073,95.905184928,2.69686897163,0.0931138500332,0.902761782232,3.57786915637,0.0,0.0,0.0
60,2.53850545679,1.2595579609,44.8913966238,2.02743723967,0.0945614146583,96.1714516826,2.69138196575,0.0932209964481,0.90037718206,3.58485390144,0.0,0.0,0.0
61,2.54384920981,1.27335492372,44.5157385849,2.02621542264,0.0943225931308,96.4342074609,2.68609340921,0.0932512573571,0.898055738513,3.5914641525,0.0,0.0,0.0
62,2.54907883927,1.2870451789,44.1478877118,2.02504359873,0.0940483526019,96.6935114962,2.68099474723,0.0932043829298,0.895795939802,3.59769753534,0.0,0.0,0.0
63,2.55419879947,1.30063061411,43.7875490444,2.02391984269,0.0937391495619,96.9494240153,2.67607793512,0.093080330609,0.893596283947,3.60355187191,0.0,0.0,0.0
64,2.55921330143,1.31411305534,43.4344432592,2.02284233843,0.0920800000837,97.2020058798,2.67133540089,0.0903131524722,0.891495825788,3.60190627582,0.0,0.0,0.0
65,2.56412632985,1.32749426977,43.0883056116,2.02180937123,0.0916887996297,97.4513182805,2.66676001105,0.0900044155101,0.889410403414,3.60680522753,0.0,0.0,0.0
66,2.56894165851,1.34077596813,42.7488849721,2.02081932079,0.0912640360917,97.6974224731,2.66234503945,0.0896220815549,0.887382321464,3.61132002515,0.0,0.0,0.0
67,2.57366286461,1.35395980755,42.4159429266,2.01987065464,0.0908061194546,97.940379564,2.65808413858,0.0891670197889,0.885410549182,3.61544929034,0.0,0.0,0.0
68,2.57829334169,1.36704739353,42.0892529625,2.01896192231,0.0903154496587,98.1802503197,2.65397131344,0.0886402918615,0.883494190725,3.61919182712,0.0,0.0,0.0
69,2.58283631176,1.38004028237,41.7685997076,2.01809174984,0.089792417014,98.417095015,2.65000089734,0.0880431463373,0.881632502885,3.62254661938,0.0,0.0,0.0
70,2.58729483636,1.39293998334,41.453778228,2.01725883474,0.0906317368968,98.6509733051,2.64616752981,0.0900912599234,0.879771306022,3.63377594995,0.0,0.0,0.0
71,2.5916718267,1.4057479604,41.1445933885,2.01646194141,0.090057933649,98.8819441144,2.64246613625,0.0893731612849,0.8780086565,3.63654214068,0.0,0.0,0.0
72,2.59597005309,1.41846563428,40.8408592509,2.01569989685,0.0894527940098,99.1100655511,2.63889190915,0.0885867024531,0.876297217089,3.63891804197,0.0,0.0,0.0
73,2.60019215374,1.43109438429,40.5423985178,2.01497158674,0.0888166747636,99.3353948377,2.63544029072,0.0877337930859,0.874636842246,3.64090328002,0.0,0.0,0.0
74,2.6043406427,1.44363554982,40.2490420253,2.01427595181,0.0881499247333,99.5579882488,2.63210695704,0.0868164963165,0.873027603085,3.64249764882,0.0,0.0,0.0
75,2.60841791738,1.4560904321,39.960628262,2.01361198447,0.0874528850876,99.7779010699,2.62888780319,0.0858370168372,0.871469795653,3.64370111006,0.0,0.0,0.0
76,2.61242626544,1.46846029566,39.6770029276,2.0129787257,0.088195819836,99.995187561,2.62577892965,0.0876545445532,0.869896979089,3.65390501054,0.0,0.0,0.0
77,2.61636787128,1.48074636985,39.3980185198,2.01237526213,0.0874514935979,100.209900933,2.62277662961,0.0865577008958,0.868421959648,3.65451270907,0.0,0.0,0.0
78,2.62024482194,1.49294985007,39.1235339539,2.0118007234,0.0866777753691,100.422093327,2.61987737734,0.0854032622678,0.866997517448,3.65472950745,0.0,0.0,0.0
79,2.62405911264,1.50507189916,38.8534142036,2.01125427967,0.0858749795282,100.631815804,2.61707781723,0.0841939250426,0.865624762971,3.65455596353,0.0,0.0,0.0
80,2.62781265204,1.51711364873,38.5875299668,2.01073513925,0.0865620463204,100.839118341,2.61437475373,0.0858706867591,0.864219667527,3.66412330975,0.0,0.0,0.0
81,2.63150726696,1.52907620014,38.3257573582,2.01024254649,0.0857139874984,101.044049829,2.61176514199,0.0845494826428,0.862922330678,3.6633536626,0.0,0.0,0.0
82,2.6351447069,1.54096062577,38.067977616,2.00977577978,0.0848376784057,101.246658073,2.60924607911,0.0831793045762,0.86167784594,3.66219521093,0.0,0.0,0.0
83,2.63872664827,1.55276797005,37.814076832,2.00933414964,0.0854877323952,101.446989806,2.60681479606,0.0847658838997,0.860392811757,3.67132619851,0.0,0.0,0.0
84,2.64225469825,1.56449925053,37.5639456954,2.00891699699,0.0845675333787,101.645090691,2.60446865002,0.083288724488,0.859219701462,3.66957323536,0.0,0.0,0.0
85,2.64573039849,1.57615545874,37.3174792578,2.00852369152,0.0851975986872,101.841005338,2.60220511746,0.084842091192,0.858026109257,3.6784719369,0.0,0.0,0.0
86,2.64915522852,1.58773756121,37.0745767079,2.00815363014,0.0842343313989,102.034777316,2.60002178743,0.0832602723298,0.856921205212,3.67612592494,0.0,0.0,0.0
87,2.65253060897,1.59924650034,36.8351411636,2.00780623561,0.0832440684159,102.226449167,2.59791635548,0.0816402739556,0.855873101314,3.67339553915,0.0,0.0,0.0
88,2.65585790458,1.61068319525,36.5990794743,2.00748095511,0.0838393718546,102.416062428,2.5958866179,0.0830942136459,0.854773728099,3.68185348454,0.0,0.0,0.0
89,2.65913842701,1.62204854254,36.3663020381,2.00717725909,0.0828072892955,102.603657644,2.59393046632,0.0813768198533,0.853793198507,3.67853434094,0.0,0.0,0.0
90,2.66237343749,1.63334341712,36.1367226277,2.00689464002,0.0833839045144,102.789274391,2.59204588273,0.0827915404765,0.852769519751,3.68675721509,0.0,0.0,0.0
91,2.66556414934,1.64456867297,35.9102582263,2.00663261131,0.0823107507423,102.972951292,2.59023093469,0.0809804770295,0.851855444475,3.68285237734,0.0,0.0,0.0
92,2.66871173027,1.65572514372,35.6868288762,2.00639070629,0.0828691326621,103.154726039,2.58848377096,0.0823539655806,0.850901777432,3.69083945277,0.0,0.0,0.0
93,2.67181730459,1.66681364348,35.4663575327,2.00616847722,0.081755630511,103.334635415,2.58680261738,0.0804534423866,0.850053819421,3.68635255574,0.0,0.0,0.0
94,2.67488195529,1.67783496738,35.2487699281,2.00596549438,0.0822962159674,103.512715311,2.58518577289,0.081783906627,0.84916469777,3.69410351223,0.0,0.0,0.0
95,2.67790672601,1.68878989225,35.0339944431,2.00578134519,0.0811430642491,103.68900075,2.58363160598,0.0797985799103,0.848383312532,3.68903874078,0.0,0.0,0.0
96,2.68089262285,1.69967917719,34.8219619862,2.00561563346,0.0816662731352,103.863525907,2.58213855116,0.0810844607476,0.847553513256,3.69655363551,0.0,0.0,0.0
97,2.68384061609,1.71050356413,34.6126058782,2.00546797854,0.0804741480258,104.036324127,2.5807051058,0.0790193894777,0.846839950721,3.69091570886,0.0,0.0,0.0
98,2.6867516419,1.7212637784,34.4058617447,2.00533801467,0.0809803843324,104.20742795,2.57932982704,0.0802593699958,0.846064515283,3.69819494713,0.0,0.0,0.0
99,2.68962660382,1.73196052922,34.201667413,2.00522539027,0.079749940655,104.376869129,2.57801132898,0.0781199674815,0.845420814723,3.69198910919,0.0,0.0,0.0
100,2.69246637422,1.74259451026,33.9999628165,2.0051297673,0.0802395934353,104.544678648,2.57674827992,0.07931297858,0.844695065211,3.69903341663,0.0,0.0,0.0
101,2.69527179573,1.75316640004,33.8006899017,2.00505082066,0.0807263871589,104.710886748,2.57553939984,0.0805232225796,0.844025288001,3.7060427229,0.0,0.0,0.0
102,2.69804368253,1.76367686247,33.6037925424,2.00498823763,0.0794449100982,104.875522939,2.57438345804,0.0782501828328,0.843443594783,3.69907582844,0.0,0.0,0.0
103,2.70078282156,1.77412654727,33.4092164573,2.00494171729,0.0799156166204,105.038616025,2.57327927081,0.0794113318712,0.842816859932,3.70585081884,0.0,0.0,0.0
104,2.70348997371,1.78451609035,33.2169091316,2.00491097006,0.0785973116707,105.200194119,2.57222569933,0.0770763750974,0.842309597016,3.69832975973,0.0,0.0,0.0
105,2.70616587494,1.79484611431,33.0268197438,2.00489571717,0.079052287701,105.360284664,2.57122164765,0.0781878936499,0.841721877048,3.70487186259,0.0,0.0,0.0
106,2.70881123421,1.80511721664,32.8388993159,2.00489569023,0.0795046685842,105.518914263,2.57026606187,0.0793144039618,0.841185363341,3.71137715534,0.0,0.0,0.0
107,2.71142672984,1.81532995161,32.6531009771,2.00491063062,0.0781373316412,105.676108416,2.56935792967,0.0768589787858,0.840741189902,3.70311439746,0.0,0.0,0.0
108,2.71401305407,1.82548500149,32.4693768029,2.00494028955,0.0785744358903,105.831894159,2.56849626389,0.0779343033348,0.840237834838,3.70938838687,0.0,0.0,0.0
109,2.71657082441,1.83558282634,32.2876841146,2.00498442683,0.07717165676,105.986294698,2.56768013133,0.0754310337483,0.839876660732,3.70058779461,0.0,0.0,0.0
110,2.71909777127,1.84561246311,32.1081852541,2.00504273581,0.0775933231708,106.139159026,2.56690948547,0.076453984094,0.839403650761,3.70662546551,0.0,0.0,0.0
111,2.72159671385,1.85558313157,31.9306810219,2.00511501311,0.0780125104333,106.290644094,2.56618269925,0.0774893566722,0.838977328616,3.71262355637,0.0,0.0,0.0
112,2.72406853723,1.86549652465,31.7551095605,2.00520104268,0.0765619258401,106.440790951,2.56549881839,0.0748798171867,0.838686218211,3.7030948413,0.0,0.0,0.0
113,2.72651407843,1.87535422779,31.5814123797,2.00530062185,0.076966496239,106.589638419,2.56485694315,0.0758628256149,0.838284636541,3.70886482825,0.0,0.0,0.0
114,2.72893412883,1.88515772242,31.4095341866,2.00541356024,0.0773688418648,106.73722319,2.56425622469,0.0768576113367,0.83792724644,3.71459643142,0.0,0.0,0.0
115,2.73132943651,1.89490838955,31.2394227244,2.00553967885,0.0758722142064,106.883579917,2.56369586151,0.0741523410864,0.837709225721,3.70436439066,0.0,0.0,0.0
116,2.73370070848,1.90460751322,31.0710286172,2.00567880916,0.0762605675064,107.02874131,2.56317509624,0.0750946970854,0.837371835919,3.70987392496,0.0,0.0,0.0
117,2.73604861278,1.91425628407,30.9043052225,2.00583079223,0.0766469046776,107.172738216,2.56269321249,0.0760481223444,0.837076360106,3.71534589729,0.0,0.0,0.0
118,2.73837378048,1.92385580283,30.7392084897,2.00599547799,0.0751054882156,107.315599714,2.56224953202,0.0732570336241,0.836936467324,3.70442944699,0.0,0.0,0.0
119,2.74067680765,1.93340708381,30.5756968259,2.00617272444,0.0754783610465,107.457353188,2.561843412,0.0741580928286,0.836656892693,3.709684559,0.0,0.0,0.0
120,2.74295825718,1.9429110583,30.4137309667,2.00636239693,0.0758493870777,107.598024416,2.56147424243,0.0750694615889,0.83641713788,3.71490261471,0.0,0.0,0.0
