,theta i [rad],r orb [AU],v orb [km s-1],ang orb [rad],r L1 [AU],v i [km s-1],ang i [rad],a p [AU],e p,theta p i [rad],flag impact,v imp [km s-1],ang imp [rad]
0,0.0,0.59445,74.0504263541,1.57079632679,0.282051354861,7.40504263541,1.57079632679,0.142265491512,0.982570417201,3.14159265359,1.0,612.773375275,0.822920774017
1,0.0428123848106,0.594668564065,74.0341248493,1.58796809322,0.282155057931,7.48654498389,1.74142560493,0.142345967905,0.982696466744,3.14462743058,1.0,612.776252602,0.81935536635
2,0.0855619291497,0.595323535373,73.9853243281,1.60511093328,0.282465825098,7.72529054056,1.90558275148,0.142587322537,0.983070974282,3.14758965992,1.0,612.784862359,0.80875151028
3,0.128186411554,0.596412760979,73.904334765,1.62219621052,0.282982634845,8.10568386964,2.0583171042,0.142989333347,0.983683135032,3.1504082027,1.0,612.799138355,0.791373528677
4,0.170624835429,0.597932684837,73.7916661705,1.63919586194,0.28310526871,8.60631392368,2.19692154125,0.143245162748,0.984547860057,3.15299019734,1.0,612.80818134,0.805190295157
5,0.212818003039,0.599878395097,73.6480189388,1.65608266655,0.284026510905,9.20418726599,2.32074098997,0.143965170382,0.985573981431,3.15531521431,1.0,612.833458747,0.834704993809
6,0.254709044834,0.602243688241,73.474270856,1.67283049291,0.284543567937,9.87770754101,2.43050732939,0.144532787061,0.986794235296,3.1572714063,1.0,612.853207888,0.871322131126
7,0.296243895605,0.605021148352,73.2714612412,1.68941452139,0.285855841383,10.6081297588,2.5276591497,0.145566436173,0.98811638085,3.15886926146,1.0,612.888774522,0.910836696118
8,0.337371704703,0.608202239117,73.0407727914,1.70581143539,0.286750008159,11.3799099959,2.61385797567,0.146439168221,0.989555019055,3.15999292758,1.0,612.918411682,0.956138406227
9,0.378045176376,0.611777406169,72.7835117412,1.72199957954,0.28782320764,12.1804724734,2.69071513267,0.147459747879,0.991041908721,3.16063887377,1.0,612.952622835,1.00500298506
10,0.418220835754,0.615736187118,72.5010869715,1.7379590829,0.289069344643,12.9997599229,2.75966853365,0.148625776293,0.992535297157,3.16077706161,1.0,612.991132283,1.0570433949
11,0.457859219689,0.620067326601,72.1949886884,1.75367194662,0.29048199439,13.8297605316,2.82194614267,0.149934798011,0.993993197333,3.16038444413,1.0,613.033647789,1.11194158344
12,0.496924994029,0.624758893786,71.8667672512,1.76912209711,0.292054461413,14.6640911135,2.87857223794,0.151384317875,0.995374301386,3.15944462864,1.0,613.079865293,1.16944616923
13,0.535387000939,0.629798399877,71.5180126695,1.7842954063,0.29377983774,15.4976573901,2.93039116031,0.152971817886,0.996638788986,3.1579474017,1.0,613.129473454,1.22936886617
14,0.573218242571,0.635172913559,71.1503351984,1.7991796819,0.295651059431,16.3263871839,2.97809563209,0.154694773725,0.9977490147,3.15588815382,1.0,613.182157917,1.29158096911
15,0.610395805824,0.640869172213,70.7653474033,1.81376463028,0.297019449764,17.1470241065,3.02225379233,0.156195815122,0.998672785952,3.15324204685,1.0,613.227105727,1.3564771892
16,0.646900738601,0.646873687654,70.3646479285,1.82804179651,0.299154802085,17.9569686041,3.06333275011,0.15817492389,0.999371475286,3.15007094919,1.0,613.285060218,1.4229624868
17,0.682717884351,0.653172845017,69.9498071521,1.84200448505,0.30076027258,18.7541549483,3.10171818375,0.159911822149,0.999821832947,3.1463419868,1.0,613.33473575,1.49185950698
18,0.717835681999,0.659752993622,69.5223548309,1.85564766436,0.303129757437,19.5369551526,3.1377302539,0.162135333677,0.999998181641,3.14209626981,1.0,613.396769488,1.56277524334
19,0.7522459418,0.666600529635,69.0837697222,1.86896786048,0.30494138705,20.3041030731,3.1716363584,0.164094595738,0.999881209459,3.13733830877,1.0,613.450032604,1.505536529
20,0.785943603174,0.673701969964,68.6354711538,1.88196304225,0.307515617548,21.0546336356,3.20366128897,0.166551146355,0.999454165552,3.13207639778,1.0,613.51503778,1.42952409785
21,0.818926480447,0.681044017076,68.1788124616,1.89463250129,0.309503490884,21.787833493,3.23399529914,0.168719710775,0.998706160155,3.12635963759,1.0,613.570843697,1.35090151043
22,0.851195005467,0.688613615468,67.7150761254,1.90697673061,0.311564922768,22.5032005026,3.26280051658,0.170983183304,0.997628872433,3.1201995507,1.0,613.627576931,1.26908458477
23,0.882751968655,0.696397999276,67.2454704969,1.91899730283,0.313692796137,23.200409988,3.29021604618,0.173338020215,0.996217519691,3.11361734751,1.0,613.685022263,1.1834635736
24,0.913602266677,0.704384732331,66.7711278951,1.93069675166,0.315880244008,23.8792864371,3.31636204585,0.175780750437,0.994470359607,3.10663429496,1.0,613.742979898,1.09318271536
25,0.943752656477,0.71256174026,66.293103946,1.94207845673,0.31812066051,24.5397794903,3.34134299098,0.178307976993,0.992388414092,3.09927145393,1.0,613.801265496,0.9970009529
26,0.973211522161,0.720917336169,65.812377935,1.95314653444,0.320407708675,25.1819435062,3.36525030228,0.180916377614,0.989975184319,3.0915494688,1.0,613.859709978,0.89302460035
27,1.00198865309,0.729440239567,65.3298540566,1.9639057345,0.322735324934,25.8059200164,3.38816446802,0.183602704262,0.987236365191,3.08348840446,1.0,613.918159153,0.792663410162
28,1.03009503817,0.738119590147,64.846363345,1.97436134401,0.325097721119,26.4119226788,3.41015676811,0.186363782051,0.984179565414,3.07510762388,1.0,613.976473213,0.924281162014
29,1.05754267364,0.746944956086,64.362666195,1.9845190982,0.326741691255,27.0002242828,3.43129067922,0.188697587429,0.98085141013,3.06660050119,1.0,614.02442827,1.08181576225
30,1.08434438828,0.755906338463,63.8794552857,1.99438509925,0.329148409408,27.5711455795,3.45162302756,0.191584941674,0.977194741077,3.05765760063,1.0,614.082135819,1.32432442109
31,1.11051368251,0.764994171388,63.3973588433,2.00396574197,0.331574054046,28.1250456244,3.47120493722,0.194537424376,0.973252265242,3.04844918557,0.0,0.0,0.0
32,1.13606458453,0.774199319402,62.9169440892,2.01326764729,0.333238950094,28.6623134935,3.49008261624,0.197010164594,0.969096341499,3.03923643358,0.0,0.0,0.0
33,1.16101151971,0.783513071658,62.438720839,2.02229760224,0.335679277761,29.1833611368,3.50829800944,0.200068728868,0.964629346972,3.02956956546,0.0,0.0,0.0
34,1.18536919551,0.792927134292,61.9631451297,2.03106250703,0.338125088124,29.6886172802,3.52588934522,0.203183336122,0.959916997296,3.0196834929,0.0,0.0,0.0
35,1.20915249884,0.802433620688,61.4906228545,2.03956932817,0.339769194593,30.1785222029,3.54289159441,0.20576177943,0.955059334175,3.00991662649,0.0,0.0,0.0
36,1.23237640574,0.812025040189,61.0215133448,2.04782505733,0.342204750531,30.6535232907,3.55933685767,0.208963226818,0.949908769221,2.99966022401,0.0,0.0,0.0
37,1.25505590357,0.82169428611,60.5561328382,2.05583667591,0.343812027502,31.1140712949,3.57525469518,0.21158868163,0.944661385637,2.98960694088,0.0,0.0,0.0
38,1.27720592227,0.831434622292,60.0947578538,2.06361112406,0.346223029797,31.5606171544,3.59067240669,0.214864230613,0.939132135932,2.97903181946,0.0,0.0,0.0
39,1.29884127676,0.841239669708,59.6376283919,2.07115527472,0.347779767271,31.9936093689,3.60561527285,0.217522172979,0.933555387105,2.96874513648,0.0,0.0,0.0
40,1.31997661651,0.851103392031,59.1849510073,2.07847591115,0.349301696363,32.4134917929,3.62010676201,0.220181892471,0.927841259069,2.95837646835,0.0,0.0,0.0
41,1.3406263844,0.861020081661,58.7369016829,2.0855797086,0.351647845111,32.8207018512,3.63416871032,0.223535513392,0.921858641956,2.94742538664,0.0,0.0,0.0
42,1.3608047812,0.87098434504,58.2936285619,2.09247321871,0.353101765475,33.2156690654,3.64782147738,0.226205954045,0.915902099139,2.9368947514,0.0,0.0,0.0
43,1.38052573763,0.880991088724,57.8552544742,2.09916285734,0.35451293459,33.5988139004,3.6610840833,0.228866768639,0.909850149063,2.92631709622,0.0,0.0,0.0
44,1.3998028906,0.891035504984,57.4218793201,2.10565489438,0.356770976972,33.9705468377,3.67397432811,0.232269586829,0.903538393577,2.91508228178,0.0,0.0,0.0
45,1.41864956538,0.90111305815,56.9935822634,2.1119554462,0.358099988095,34.3312676831,3.67899464832,0.234919821154,0.900000237659,2.90704085859,0.0,0.0,0.0
46,1.43707876171,0.911219471206,56.5704237651,2.11807046998,0.359379855552,34.681365055,3.67903013614,0.237549266992,0.898251480209,2.90078047121,0.0,0.0,0.0
47,1.45510314316,0.921350712462,56.1524474727,2.12400575944,0.360608741376,35.021216019,3.67903143734,0.240154134448,0.896578290113,2.89461367597,0.0,0.0,0.0
48,1.47273503059,0.931502983172,55.7396819389,2.12976694254,0.362717381911,35.3511858738,3.67899594282,0.243570861421,0.894793295491,2.88782662369,0.0,0.0,0.0
49,1.4899863975,0.941672705036,55.3321422213,2.13535947992,0.363849517757,35.6716280293,3.67892150556,0.246137083888,0.893272415607,2.88184481744,0.0,0.0,0.0
50,1.50686886867,0.951856508765,54.9298313257,2.14078866485,0.364925972945,35.9828839977,3.67880638031,0.248667878257,0.891829373023,2.8759773151,0.0,0.0,0.0
51,1.52339371992,0.962051222526,54.5327415485,2.14605962377,0.365945414109,36.2852834436,3.67864917093,0.251159580468,0.890464308984,2.87023035335,0.0,0.0,0.0
52,1.53957188057,0.97225386151,54.1408556775,2.15117731788,0.367879843643,36.5791443169,3.67844878443,0.254539463283,0.888984560044,2.86379389654,0.0,0.0,0.0
53,1.55541393642,0.982461617364,53.754148109,2.15614654507,0.368791902583,36.8647730201,3.67820439083,0.256965169667,0.887774216106,2.85828178214,0.0,0.0,0.0
54,1.57093013463,0.992671848566,53.3725858464,2.16097194267,0.369643575431,37.1424646313,3.67791538802,0.259341289918,0.88664106948,2.85290691204,0.0,0.0,0.0
55,1.5861303895,1.00288207121,52.9961294098,2.1656579905,0.370433922407,37.4125031572,3.67758137103,0.261664316066,0.885584400786,2.84767416587,0.0,0.0,0.0
56,1.60102428852,1.01308994991,52.6247336716,2.17020901414,0.37217619203,37.6751618046,3.67720210515,0.264957546027,0.884409626717,2.84167806358,0.0,0.0,0.0
57,1.61562110002,1.02329328973,52.2583485934,2.17462918882,0.372851613319,37.9307032855,3.67677750239,0.267188090683,0.883503056652,2.83671970823,0.0,0.0,0.0
58,1.62992978027,1.03349002797,51.8969199124,2.17892254312,0.373463367729,38.1793801211,3.67630760085,0.269355508855,0.882670006224,2.83191626844,0.0,0.0,0.0
59,1.64395898183,1.04367822676,51.5403897461,2.18309296308,0.374010820284,38.4214349672,3.6757925467,0.271456498397,0.881909177716,2.82727132938,0.0,0.0,0.0
60,1.65771706188,1.05385606606,51.1886971384,2.18714419642,0.374493401154,38.6571009429,3.67523257827,0.273487824573,0.881219170831,2.82278816358,0.0,0.0,0.0
61,1.67121209045,1.06402183668,50.8417785619,2.19107985663,0.375975688352,38.8866019555,3.67462801231,0.276597689853,0.880406772095,2.81744512998,0.0,0.0,0.0
62,1.68445185922,1.07417393411,50.4995683573,2.19490342726,0.376337218493,39.1101530334,3.67397923176,0.278505043695,0.879854453025,2.81327185021,0.0,0.0,0.0
63,1.69744389026,1.08431085257,50.1619991283,2.19861826624,0.376632502701,39.3279606558,3.67328667518,0.280333526647,0.879368369354,2.80926858647,0.0,0.0,0.0
64,1.71019544445,1.09443117915,49.829002106,2.20222760998,0.377956717892,39.5402230714,3.67255082742,0.283309509189,0.878758165849,2.80434625907,0.0,0.0,0.0
65,1.72271353022,1.10453358858,49.5005074627,2.20573457765,0.378128620305,39.7471306198,3.6717722115,0.284996487209,0.878400324949,2.80066753023,0.0,0.0,0.0
66,1.73500491218,1.11461683833,49.1764445939,2.20914217527,0.378233345948,39.9488660447,3.67095138149,0.286596003005,0.878103623738,2.79716461092,0.0,0.0,0.0
67,1.74707611924,1.12467976358,48.8567423779,2.21245329975,0.378270675668,40.145604794,3.67008891628,0.288105372091,0.877866285325,2.79383883703,0.0,0.0,0.0
68,1.75893345302,1.13472127295,48.541329397,2.21567074286,0.379376285895,40.3375153184,3.66918541422,0.290855150853,0.877502816876,2.78951493246,0.0,0.0,0.0
69,1.770582996,1.14474034432,48.2301341346,2.21879719512,0.379288346779,40.5247593599,3.6682414883,0.292201433678,0.877379921917,2.78652600481,0.0,0.0,0.0
70,1.78203061919,1.15473602065,47.9230851575,2.22183524955,0.380288443715,40.7074922268,3.66725776211,0.294837285461,0.877130817704,2.7824995532,0.0,0.0,0.0
71,1.79328198993,1.16470740642,47.6201112678,2.22478740535,0.380074693682,40.8858630643,3.66623486626,0.296010588438,0.877115354028,2.77985118881,0.0,0.0,0.0
72,1.80434257946,1.1746536641,47.3211416372,2.22765607148,0.379792930952,41.0600151156,3.66517343524,0.297081585669,0.877150392256,2.7773837856,0.0,0.0,0.0
73,1.81521766995,1.18457401073,47.0261059329,2.23044357006,0.380628890864,41.2300859685,3.66407410476,0.299514067119,0.8770588018,2.77382056406,0.0,0.0,0.0
74,1.82591236167,1.19446771482,46.7349344183,2.23315213974,0.380220958823,41.3962077979,3.66293750947,0.30039860675,0.877190819241,2.77169600615,0.0,0.0,0.0
75,1.83643157989,1.20433409359,46.447558041,2.23578393896,0.380950528666,41.5585075983,3.6617642809,0.302694241223,0.87719660058,2.76843733746,0.0,0.0,0.0
76,1.84678008125,1.21417250989,46.1639085174,2.23834104897,0.380416416595,41.7171074022,3.66055504585,0.303384181372,0.877418833146,2.76665555034,0.0,0.0,0.0
77,1.85696246028,1.22398236982,45.8839183953,2.24082547691,0.381039561172,41.8721244958,3.65931042484,0.305534743306,0.877515369398,2.76370199663,0.0,0.0,0.0
78,1.86698315548,1.23376312018,45.6075211129,2.24323915869,0.380379425056,42.0236716218,3.65803103096,0.306022730161,0.877821282401,2.7622616203,0.0,0.0,0.0
79,1.87684645531,1.24351424624,45.3346510439,2.24558396174,0.380896260242,42.1718571762,3.65671746877,0.308020583672,0.878002147799,2.75961255354,0.0,0.0,0.0
80,1.88655650377,1.25323526944,45.0652435429,2.24786168773,0.381364891446,42.3167853933,3.65537033348,0.309954041518,0.878224206968,2.75710641306,0.0,0.0,0.0
81,1.89611730598,1.26292574537,44.7992349751,2.2500740751,0.380521175195,42.4585565256,3.65399021021,0.310138261407,0.878644503994,2.75616477951,0.0,0.0,0.0
82,1.90553273351,1.27258526196,44.5365627406,2.25222280159,0.380883881885,42.5972670167,3.6525776734,0.311908604297,0.878941707339,2.75396054088,0.0,0.0,0.0
83,1.91480652935,1.28221343745,44.2771653008,2.25430948657,0.381198594206,42.7330096614,3.65113328635,0.313609503155,0.87927564867,2.75189791427,0.0,0.0,0.0
84,1.92394231285,1.2918099188,44.0209821901,2.25633569332,0.380172293132,42.8658737651,3.64965760086,0.313477101572,0.879797207034,2.75144697415,0.0,0.0,0.0
85,1.93294358443,1.30137438005,43.7679540287,2.25830293128,0.380381705405,42.9959452912,3.64815115693,0.31500592194,0.880197739724,2.74968160607,0.0,0.0,0.0
86,1.94181373015,1.31090652086,43.5180225268,2.26021265808,0.380543439225,43.1233070061,3.64661448255,0.31646088739,0.880630863712,2.7480555963,0.0,0.0,0.0
87,1.95055602591,1.32040606487,43.2711304934,2.2620662816,0.380657609043,43.2480386125,3.6450480936,0.317840618451,0.881095261429,2.74656812849,0.0,0.0,0.0
88,1.95917364172,1.32987275855,43.0272218324,2.26386516188,0.379393134092,43.3702168815,3.64345249374,0.317277419109,0.881733611138,2.74674928536,0.0,0.0,0.0
89,1.96766964564,1.33930636979,42.7862415427,2.26561061298,0.379403110546,43.4899157758,3.64182817439,0.3184753646,0.882254278571,2.74555046454,0.0,0.0,0.0
90,1.97604700772,1.34870668684,42.5481357098,2.26730390478,0.379365949749,43.6072065698,3.64017561473,0.319594589129,0.882802530711,2.74448690701,0.0,0.0,0.0
91,1.98430860352,1.35807351696,42.312851504,2.26894626464,0.379281797841,43.7221579604,3.63849528179,0.320634003775,0.883377200689,2.74355749446,0.0,0.0,0.0
92,1.99245721775,1.36740668551,42.0803371682,2.27053887906,0.379150807517,43.8348361763,3.6367876305,0.321592590666,0.883977159036,2.74276104414,0.0,0.0,0.0
93,2.00049554766,1.37670603487,41.8505420078,2.27208289524,0.378973137564,43.9453050814,3.63505310384,0.322469404582,0.884601313861,2.74209631282,0.0,0.0,0.0
94,2.00842620624,1.38597142348,41.6234163801,2.27357942258,0.378748952414,44.0536262722,3.63329213293,0.323263574448,0.885248610904,2.7415620007,0.0,0.0,0.0
95,2.01625172543,1.39520272503,41.3989116786,2.27502953413,0.37847842177,44.159859173,3.63150513723,0.323974304757,0.885918033443,2.74115675499,0.0,0.0,0.0
96,2.023974559,1.40439982744,41.1769803226,2.27643426792,0.378161720178,44.2640611238,3.62969252467,0.324600876735,0.886608602093,2.74087917352,0.0,0.0,0.0
97,2.03159708548,1.41356263216,40.9575757395,2.27779462833,0.377799026705,44.3662874672,3.62785469191,0.325142649493,0.887319374492,2.74072780802,0.0,0.0,0.0
98,2.03912161093,1.42269105339,40.7406523507,2.27911158735,0.377390524579,44.4665916293,3.62599202445,0.325599060955,0.888049444887,2.74070116737,0.0,0.0,0.0
99,2.0465503716,1.43178501744,40.5261655529,2.28038608575,0.376936400905,44.5650251989,3.62410489689,0.325969628712,0.888797943637,2.74079772056,0.0,0.0,0.0
100,2.05388553636,1.44084446185,40.3140717047,2.28161903428,0.376436846321,44.6616380001,3.62219367314,0.326253950576,0.889564036621,2.7410158997,0.0,0.0,0.0
101,2.06112920927,1.44986933495,40.1043281074,2.28281131478,0.375892054752,44.7564781645,3.62025870663,0.326451705138,0.890346924586,2.74135410269,0.0,0.0,0.0
102,2.06828343181,1.45885959514,39.8968929878,2.28396378123,0.376762543042,44.849592199,3.61830034054,0.328780345476,0.891030397804,2.74011101677,0.0,0.0,0.0
103,2.07535018518,1.46781521035,39.6917254811,2.28507726078,0.37613683565,44.9410250506,3.61631890802,0.328825912127,0.891846032255,2.74067489552,0.0,0.0,0.0
104,2.08233139246,1.47673615754,39.4887856114,2.28615255474,0.37546645545,45.0308201685,3.61431473242,0.328783853548,0.892676169812,2.74135415351,0.0,0.0,0.0
105,2.08922892059,1.4856224221,39.2880342767,2.28719043951,0.374751606968,45.1190195627,3.61228812754,0.328654154502,0.893520141461,2.74214707525,0.0,0.0,0.0
106,2.09604458245,1.49447399741,39.089433229,2.28819166748,0.375488466816,45.2056638609,3.6102393978,0.330751326435,0.894269652526,2.74131609717,0.0,0.0,0.0
107,2.10278013871,1.5032908844,38.8929450568,2.2891569679,0.374694129358,45.2907923628,3.60816883855,0.33046605363,0.895140463714,2.74232303045,0.0,0.0,0.0
108,2.10943729963,1.51207309107,38.6985331678,2.29008704771,0.373855914434,45.3744430911,3.60607673623,0.330092928711,0.896023182884,2.74343868958,0.0,0.0,0.0
109,2.11601772693,1.52082063216,38.5061617698,2.29098259233,0.372974033952,45.4566528421,3.60396336861,0.329632243783,0.896917258463,2.74466127915,0.0,0.0,0.0
110,2.12252303531,1.52953352865,38.3157958555,2.29184426643,0.373579765802,45.5374572313,3.60182900502,0.331487709649,0.897720925095,2.74422244149,0.0,0.0,0.0
111,2.12895479419,1.53821180747,38.1274011833,2.29267271465,0.37261988235,45.6168907397,3.59967390659,0.330870082368,0.898636840149,2.74564670069,0.0,0.0,0.0
112,2.1353145292,1.54685550114,37.9409442609,2.29346856231,0.373165346186,45.6949867565,3.59749832639,0.332617950747,0.899465366781,2.74539265007,0.0,0.0,0.0
113,2.14160372371,1.55546464739,37.7563923284,2.2942324161,0.372128183989,45.7717776206,3.59530250974,0.33184286202,0.900400839761,2.74701255176,0.0,0.0,0.0
114,2.14782382027,1.56403928898,37.5737133402,2.2949648647,0.372613969831,45.8472946606,3.59308669431,0.333481119826,0.901251721304,2.74693854028,0.0,0.0,0.0
115,2.15397622191,1.57257947321,37.3928759512,2.29566647943,0.371500261038,45.9215682316,3.59085111042,0.332548491313,0.902204658528,2.74874795758,0.0,0.0,0.0
116,2.16006229357,1.58108525181,37.2138494985,2.29633781479,0.370344298334,45.9946277521,3.58859598118,0.331530222497,0.90316548846,2.75065236441,0.0,0.0,0.0
117,2.16608336329,1.58955668058,37.036603986,2.29697940913,0.370737449142,46.0665017388,3.58632152271,0.332985629214,0.904044049016,2.75084185994,0.0,0.0,0.0
118,2.17204072349,1.59799381917,36.8611100693,2.29759178511,0.37110567685,46.1372178393,3.5840279443,0.334399872065,0.904932816228,2.75111328752,0.0,0.0,0.0
119,2.17793563212,1.60639673085,36.6873390398,2.29817545027,0.369841094328,46.2068028644,3.58171544864,0.333153687363,0.905915094208,2.75328305363,0.0,0.0,0.0
120,2.18376931379,1.61476548228,36.5152628093,2.29873089754,0.370151452039,46.2752828185,3.57938423195,0.33445415995,0.906819714794,2.75371972837,0.0,0.0,0.0
