,theta i [rad],r orb [AU],v orb [km s-1],ang orb [rad],r L1 [AU],v i [km s-1],ang i [rad],a p [AU],e p,theta p i [rad],flag impact,v imp [km s-1],ang imp [rad]
0,0.0,0.28665,111.964651978,1.57079632679,0.136008111618,11.1964651978,1.57079632679,0.0686637273276,0.980785443949,3.14159265359,1.0,607.293458226,1.00112431885
1,0.133907624965,0.287826887626,111.715667132,1.6319491147,0.13627839976,12.7252913633,2.13711297786,0.068997160576,0.982354046058,3.15305521631,1.0,607.344874388,1.02595025447
2,0.265662220141,0.291317807635,110.985760173,1.69206818028,0.137348038961,16.3913522731,2.5306712927,0.0701323093195,0.986509701603,3.16140136878,1.0,607.51622005,1.09591940961
3,0.393330347582,0.297009059964,109.822694025,1.75022618385,0.138842076633,20.9122048853,2.78544547226,0.0718802974671,0.991933605274,3.16413722905,1.0,607.769399496,1.20437391438
4,0.515363674668,0.304727907906,108.296089686,1.8056822326,0.141230255195,25.6121194958,2.96282819121,0.0745044568953,0.996866352264,3.1599199689,1.0,608.126999776,1.3412913275
5,0.630679748142,0.314262733633,106.48617447,1.85792073692,0.143447257421,30.1870002864,3.09656875402,0.077426526992,0.999723521674,3.14821809987,1.0,608.496452386,1.50184812368
6,0.738659089965,0.325383685522,104.473362801,1.90664963707,0.146243521995,34.497732082,3.20342773566,0.08107244875,0.999324231704,3.12948686934,1.0,608.919804276,1.46044557726
7,0.839082559819,0.337860209104,102.330715571,1.95176971062,0.149145501443,38.4846928873,3.29220185962,0.0851742755985,0.995081328467,3.10447374979,1.0,609.352465077,1.26191310069
8,0.932039921719,0.351473716482,100.119809846,1.99333003917,0.15163681241,42.130733163,3.36790754782,0.0893728597692,0.986958864229,3.07433897944,1.0,609.753926184,1.04062494796
9,1.01783519125,0.366025283184,97.8894791959,2.03148206183,0.15425089898,45.4423101609,3.43365015501,0.093996109092,0.975277335856,3.03993093233,1.0,610.15424036,0.791580486259
10,1.09690417735,0.381339227777,95.6764631708,2.06643967069,0.156505592916,48.4386192211,3.49149713351,0.098668572678,0.960656902241,3.00241940612,1.0,610.520470077,1.15697099631
11,1.16975038306,0.39726375766,93.5070518486,2.09844829567,0.158666910225,51.1449931395,3.54291067828,0.103550306884,0.943736135933,2.96241420899,0.0,0.0,0.0
12,1.23689936821,0.413669786825,91.3990622655,2.12776298469,0.160250462052,53.5888907459,3.58897548614,0.108176754466,0.925320258956,2.92120812755,0.0,0.0,0.0
13,1.29886871855,0.43044878238,89.3637522027,2.15463406,0.161148997783,55.797539764,3.63052609442,0.112330833585,0.906124715202,2.87987798479,0.0,0.0,0.0
14,1.35614991099,0.447510226268,87.4074824462,2.17929852859,0.162160867032,57.7966407622,3.66822241316,0.116700844995,0.886400304982,2.83768548751,0.0,0.0,0.0
15,1.40919860151,0.464779051362,85.5330687698,2.2019755508,0.162370263532,59.6097379041,3.70259713586,0.1202917741,0.866933097102,2.79694671337,0.0,0.0,0.0
16,1.45843053602,0.482193249217,83.7408344206,2.22286460542,0.1626617912,61.2579948409,3.73408708867,0.123968998913,0.847663116462,2.7561947665,0.0,0.0,0.0
17,1.50422100828,0.499701739694,82.0294043614,2.24214534521,0.162065433605,62.7602052855,3.76305492739,0.126553045033,0.829281227281,2.71844118474,0.0,0.0,0.0
18,1.54690641829,0.517262529921,80.3962905862,2.25997844463,0.161547461387,64.1329302425,3.78980474366,0.129114045192,0.811463832019,2.68138904109,0.0,0.0,0.0
19,1.58678696054,0.534841152551,78.8383153456,2.27650697302,0.161148339922,65.3906952258,3.8145936452,0.131714786003,0.794264152633,2.64487722918,0.0,0.0,0.0
20,1.62412982578,0.552409358813,77.3519118327,2.29185799866,0.159806115557,66.5462080663,3.83764056751,0.132897538006,0.778286680986,2.6131377297,0.0,0.0,0.0
21,1.65917253272,0.569944033108,75.9333341906,2.30614424128,0.158603049071,67.6105748515,3.85913311191,0.134073288955,0.762969135598,2.58238764525,0.0,0.0,0.0
22,1.69212616812,0.58742629651,74.5788013219,2.31946566903,0.15758784019,68.5935022492,3.87923293658,0.135336870809,0.74827261934,2.55226792735,0.0,0.0,0.0
23,1.72317841488,0.60484076848,73.2845929638,2.33191098398,0.156205128348,69.5034808165,3.89808006083,0.135875221173,0.734466573636,2.52538904043,0.0,0.0,0.0
24,1.75249631205,0.622174959747,72.0471116964,2.34355897129,0.155076646635,70.3479476111,3.91291425832,0.136616263922,0.723150884118,2.50089713288,0.0,0.0,0.0
25,1.78022872969,0.639418773293,70.8629208755,2.35447970523,0.153614124787,71.1334284876,3.91806378281,0.136662025107,0.718667280875,2.48637261987,0.0,0.0,0.0
26,1.80650856324,0.656564093609,69.7287657689,2.3476533646,0.156418678042,70.6748253585,3.88829174856,0.13971999024,0.73841057859,2.50505127705,0.0,0.0,0.0
27,1.83145466648,0.673604449161,68.6415830441,2.33800655448,0.159804063607,70.0546349203,3.8531548702,0.143170883197,0.761133029855,2.52987093425,0.0,0.0,0.0
28,1.85517354374,0.690534733221,67.5985024542,2.32891901,0.162438105518,69.5078269187,3.81946407753,0.14560877858,0.782274725584,2.55651212276,0.0,0.0,0.0
29,1.87776082963,0.707350974192,66.5968432498,2.32034607008,0.164977759865,69.0271704414,3.78715484773,0.148077446757,0.801707758385,2.58178643017,0.0,0.0,0.0
30,1.89930257801,0.724050144648,65.6341073231,2.31224762594,0.167423011558,68.6061753837,3.75616503701,0.15056919876,0.819565444967,2.60585360257,0.0,0.0,0.0
31,1.91987638625,0.740630003638,64.7079702941,2.30458758028,0.169774050029,68.2390157866,3.72643486162,0.153076973995,0.835970855529,2.62884594351,0.0,0.0,0.0
32,1.93955237443,0.757088965342,63.8162715239,2.2973333769,0.172031231523,67.9204604231,3.69790688203,0.155594210555,0.851037448435,2.65087416129,0.0,0.0,0.0
33,1.95839403904,0.77342598976,62.957003657,2.29045559132,0.174195047916,67.6458102275,3.67052598466,0.15811474129,0.864869737139,2.67203172798,0.0,0.0,0.0
34,1.97645899805,0.789640491511,62.1283021223,2.28392757412,0.175475669978,67.4108420895,3.64423935853,0.159324657684,0.877670300428,2.69461685946,0.0,0.0,0.0
35,1.99379964174,0.805732263577,61.3284348722,2.27772513974,0.177438541735,67.2117584959,3.61899646497,0.161796256357,0.889300941987,2.71416069634,0.0,0.0,0.0
36,2.01046370217,0.821701413445,60.5557925359,2.27182629473,0.178487699643,67.0451424976,3.59474899989,0.162877924765,0.900048241649,2.73507079931,0.0,0.0,0.0
37,2.02649475225,0.837548309511,59.8088790938,2.26621099984,0.180253144929,66.9079174937,3.57145084845,0.165274626715,0.909809126785,2.75325895402,0.0,0.0,0.0
38,2.04193264379,0.853273536053,59.0863031267,2.26086096157,0.181075069973,66.7973113532,3.54905803281,0.166200268149,0.918812986529,2.77273784685,0.0,0.0,0.0
39,2.05681389276,0.868877855326,58.3867696622,2.25575944905,0.181777254297,66.7108244273,3.52752865368,0.16702343149,0.927043022605,2.79153236931,0.0,0.0,0.0
40,2.07117201873,0.884362175612,57.709072616,2.25089113296,0.183246221866,66.6462010404,3.50682282661,0.169242076743,0.934509018318,2.80799291938,0.0,0.0,0.0
41,2.08503784458,0.899727524337,57.0520878098,2.24624194346,0.183728148426,66.6014040876,3.48690261398,0.169871740041,0.941375572399,2.82561678425,0.0,0.0,0.0
42,2.09843976128,0.914975025066,56.4147665544,2.24179894489,0.184094079451,66.5745923997,3.46773195433,0.170381538398,0.947637197589,2.84266679481,0.0,0.0,0.0
43,2.11140396307,0.930105878612,55.7961297285,2.23755022458,0.185276351542,66.56410057,3.44927658863,0.172371293426,0.953307231382,2.85769539464,0.0,0.0,0.0
44,2.12395465576,0.945121346543,55.1952623696,2.23348479454,0.185429218507,66.5684209725,3.43150398609,0.172655428855,0.958502592351,2.87374845321,0.0,0.0,0.0
45,2.13611424228,0.960022737549,54.6113087015,2.22959250398,0.185469863597,66.5861877264,3.41438326903,0.172805494504,0.963225194497,2.88930224686,0.0,0.0,0.0
46,2.14790348786,0.974811395541,54.0434675948,2.22586396149,0.186375357306,66.6161623891,3.39788513839,0.174521201348,0.967489694516,2.90309811714,0.0,0.0,0.0
47,2.15934166789,0.989488690236,53.4909883829,2.22229046559,0.186210089274,66.6572211869,3.38198179934,0.174419000796,0.971378746173,2.91777323624,0.0,0.0,0.0
48,2.17044669966,1.0040560084,52.9531670648,2.21886394277,0.185936303297,66.708343608,3.36664688904,0.174171969515,0.974898537146,2.93200028095,1.0,613.704992411,1.32574670695
49,2.18123526093,1.01851474716,52.4293427977,2.21557689193,0.186574778963,66.7686022097,3.35185540543,0.175574789436,0.978063525104,2.94469996769,1.0,613.738155612,1.14626004799
50,2.19172289606,1.03286630801,51.9188947021,2.21242233465,0.186102042959,66.8371535021,3.33758363831,0.175055109309,0.980932149668,2.95812994989,1.0,613.725932362,1.01396905406
51,2.20192411141,1.04711209159,51.4212389373,2.2093937705,0.18657253032,66.9132297873,3.32380910297,0.17624501863,0.983501789423,2.97017297149,1.0,613.753813097,0.915424599988
52,2.21185246165,1.06125349392,50.9358259988,2.20648513678,0.185905272215,66.9961318541,3.31051047552,0.175442164114,0.985818261577,2.98284540804,1.0,613.735043074,0.823946603181
53,2.22152062711,1.07529190248,50.4621382691,2.20369077232,0.186211716366,67.0852224246,3.29766753164,0.176406734847,0.987882801221,2.994263587,1.0,613.757573136,0.8223397157
54,2.23094048426,1.08922869373,49.9996877405,2.20100538472,0.186444556719,67.179920281,3.28526108714,0.177274289529,0.989725141773,3.00540750005,1.0,613.777627011,0.891233682887
55,2.24012316891,1.10306523027,49.548013951,2.19842402084,0.185500464704,67.2796949872,3.27327294199,0.176042336314,0.991367769741,3.01702813523,1.0,613.749090774,0.959059510181
56,2.24907913411,1.11680285927,49.1066820612,2.19594203989,0.185574855061,67.384062151,3.2616858262,0.176669357905,0.992815845016,3.02758229877,1.0,613.763664629,1.01805563519
57,2.25781820212,1.13044291045,48.6752811109,2.19355508929,0.185578221115,67.4925791581,3.25048334909,0.17719182608,0.994090570765,3.03787611739,1.0,613.77572931,1.07353888771
58,2.26634961229,1.14398669518,48.2534223893,2.19125908247,0.184366229754,67.6048413381,3.23964995051,0.175519998499,0.995208465995,3.04849331782,1.0,613.736870315,1.12890434847
59,2.27468206402,1.15743550504,47.8407379584,2.18905017889,0.184216467382,67.7204785049,3.22917085517,0.175792020004,0.996176298486,3.05822218385,1.0,613.743243541,1.17839176549
60,2.28282375655,1.17079061142,47.4368792665,2.18692476571,0.18399812975,67.8391518434,3.21903202879,0.175954303434,0.997009342393,3.06770053135,1.0,613.747036284,1.22555540575
61,2.29078242476,1.18405326452,47.041515893,2.18487944114,0.183711973615,67.9605510945,3.20922013731,0.176005335611,0.997718520703,3.07693084699,1.0,613.748227512,1.27062722637
62,2.29856537225,1.19722469313,46.6543343715,2.18291099922,0.183358742446,68.0843920167,3.19972250778,0.17594384268,0.998313938176,3.08591535653,1.0,613.746792016,1.31379567288
63,2.30617950159,1.21030610438,46.2750371064,2.18101641585,0.182939166595,68.2104140912,3.19052709167,0.175768798525,0.998804942578,3.09465605474,1.0,613.742700255,1.35521567162
64,2.31363134179,1.22329868327,45.9033413797,2.1791928361,0.182453963451,68.3383784426,3.18162243044,0.17547943201,0.99920018145,3.10315473236,1.0,613.735918179,1.39501581524
65,2.32092707392,1.23620359298,45.5389784151,2.17743756246,0.1819038377,68.4680659617,3.17299762263,0.175075233242,0.999507654819,3.11141300084,1.0,613.726407047,1.43330365052
66,2.32807255424,1.24902197451,45.1816925284,2.17574804416,0.181289481493,68.599275598,3.16464229338,0.174555958346,0.999734764136,3.11943231448,1.0,613.714123217,1.47016964423
67,2.3350733358,1.26175494693,44.8312403267,2.17412186725,0.180611574707,68.7318228165,3.1565465653,0.173921633062,0.999888357783,3.12721399087,1.0,613.699017919,1.50569021273
68,2.34193468821,1.27440360766,44.4873899675,2.17255674559,0.1798707852,68.8655381951,3.14870103113,0.173172554876,0.999974773389,3.13475922927,1.0,613.681037005,1.53993007166
69,2.34866161579,1.28696903235,44.1499204779,2.17105051242,0.180356026297,69.0002661485,3.14109672821,0.174710963874,0.999999877157,3.14207255519,1.0,613.717797657,1.56863332123
70,2.35525887447,1.29945227534,43.8186211133,2.16960111272,0.179503923675,69.135863771,3.13372511423,0.173753775073,0.999969084967,3.1491998219,1.0,613.69500217,1.53656905575
71,2.36173098738,1.31185436994,43.4932907612,2.16820659603,0.178590790871,69.2721997831,3.12657804437,0.172682548759,0.99988741483,3.15609350733,1.0,613.669190185,1.50564594138
72,2.36808225914,1.3241763286,43.1737373942,2.16686510995,0.177617251064,69.4091535696,3.11964775002,0.171498615208,0.999759526788,3.16275449308,1.0,613.640286015,1.47583033569
73,2.37431678926,1.33641914329,42.8597775512,2.16557489396,0.177921673519,69.5466143066,3.11292681856,0.17270682771,0.999589537732,3.1693926929,1.0,613.669778763,1.44616465861
74,2.3804384845,1.34858378599,42.5512358553,2.16433427388,0.176841323089,69.6844801643,3.1064081743,0.171315031274,0.999381734287,3.17564168149,1.0,613.635768157,1.41825606367
75,2.38645107028,1.36067120879,42.2479445704,2.1631416566,0.177064327279,69.8226575774,3.10008506074,0.172377187659,0.999139320638,3.18197095776,1.0,613.661773325,1.38999644035
76,2.39235810135,1.37268234445,41.9497431792,2.16199552523,0.175879225136,69.9610605811,3.09395102369,0.170778473761,0.998866364953,3.18781026346,1.0,613.622508019,1.36391435594
77,2.39816297175,1.38461810677,41.6564779902,2.16089443464,0.174636523811,70.099610205,3.08799989538,0.169073470377,0.998565807312,3.19342035172,1.0,613.579811073,1.33883928149
78,2.40386892389,1.39647939087,41.3680017763,2.15983700725,0.174734664364,70.2382339148,3.08222577965,0.169887957542,0.998239739743,3.1992638684,1.0,613.600314865,1.31267872986
79,2.40947905721,1.40826707364,41.0841734294,2.15882192913,0.174799922902,70.3768651051,3.07662303783,0.170648727596,0.997891466585,3.20497959447,1.0,613.619288992,1.28703772679
80,2.4149963362,1.41998201424,40.804857637,2.15784794643,0.173411222821,70.5154426348,3.0711862755,0.168645037914,0.997524475933,3.21000594041,1.0,613.568946005,1.26446373971
81,2.42042359777,1.43162505426,40.5299245869,2.15691386195,0.173400037472,70.6539103975,3.06591033009,0.169252586687,0.997139181025,3.2154168724,1.0,613.584337109,1.24007263279
82,2.42576355826,1.4431970183,40.2592496809,2.15601853201,0.171912363423,70.7922169322,3.06079025905,0.167053827295,0.996740026636,3.22003989553,1.0,613.528103245,1.21921796684
83,2.43101881994,1.45469871426,39.9927132716,2.15516086353,0.171826280451,70.9303150632,3.05582132885,0.167507926334,0.996326342103,3.22514735896,1.0,613.539838337,1.19605713972
84,2.43619187713,1.46613093381,39.7302004117,2.15433981128,0.171709034185,71.0681615712,3.05099900442,0.167904805767,0.995901310637,3.23012808655,1.0,613.550042563,1.17338270808
85,2.44128512181,1.47749445266,39.4716006236,2.15355437527,0.170081949914,71.2057168886,3.04631893941,0.165422489247,0.995468497975,3.23417464717,1.0,613.485411888,1.15498045705
86,2.446300849,1.48879003099,39.2168076768,2.15280359843,0.16989196141,71.3429448222,3.04177696684,0.165666254566,0.995025795546,3.23885382306,1.0,613.491844733,1.13352606566
87,2.45124126177,1.50001841382,38.9657193823,2.15208656428,0.169671758442,71.4798122963,3.0373690903,0.165851750315,0.994576525661,3.24340694497,1.0,613.496727159,1.11255367112
88,2.45610847592,1.51118033139,38.7182373965,2.15140239488,0.169421624669,71.6162891179,3.0330914757,0.165978529855,0.994122057579,3.24783418903,1.0,613.500057817,1.09206267136
89,2.46090452434,1.52227649946,38.4742670399,2.15075024884,0.169141839215,71.7523477574,3.02894044344,0.166046213642,0.993663657421,3.25213574456,1.0,613.501833866,1.07205339862
90,2.4656313612,1.53330761969,38.2337171221,2.15012931946,0.167297834329,71.8879631503,3.02491246099,0.163110879169,0.993205081245,3.25526408055,1.0,613.423450502,1.05763150466
91,2.47029086579,1.54427437996,37.9964997799,2.14953883298,0.166948587578,72.0231125117,3.02100413596,0.163028709528,0.992742224819,3.25926760109,1.0,613.421215535,1.03886658843
92,2.47488484619,1.55517745476,37.7625303218,2.14897804697,0.166570564185,72.1577751667,3.0172122094,0.162887784514,0.992278684131,3.26314635774,1.0,613.417377187,1.02059378461
93,2.47941504273,1.56601750544,37.5317270846,2.14844624879,0.166164025571,72.2919323927,3.01353354966,0.162688050065,0.991815385734,3.26690061201,1.0,613.411925624,1.00281678677
94,2.48388313117,1.57679518058,37.3040112945,2.14794275412,0.165729229165,72.4255672746,3.00996514639,0.162429523822,0.991353185567,3.27053064465,1.0,613.404849416,0.985540009478
95,2.4882907258,1.58751111625,37.079306938,2.14746690562,0.165266428501,72.5586645706,3.00650410503,0.162112295602,0.990892874242,3.27403675639,1.0,613.396135505,0.968768547969
96,2.49263938234,1.59816593642,36.8575406377,2.14701807163,0.164775873314,72.691210589,3.00314764141,0.161736527671,0.990435182016,3.27741926882,1.0,613.385769185,0.952508134978
97,2.49693060056,1.60876025311,36.6386415382,2.14659564501,0.164257809622,72.823193073,2.99989307686,0.161302454753,0.98998078345,3.28067852502,1.0,613.373734063,0.936765094295
98,2.50116582694,1.61929466678,36.4225411942,2.14619904191,0.163712479827,72.9546010947,2.99673783336,0.160810383851,0.989530301789,3.28381489017,1.0,613.360012025,0.921546289803
99,2.50534645704,1.62976976657,36.209173467,2.1458277008,0.163140122788,73.0854249577,2.9936794291,0.160260693816,0.989084313062,3.28682875216,1.0,613.344583192,0.9068590698
100,2.5094738378,1.64018613062,35.9984744251,2.14548108136,0.16254097392,73.2156561061,2.99071547418,0.159653834707,0.98864334993,3.28972052203,1.0,613.327425875,0.892711205633
101,2.51354926971,1.65054432626,35.7903822511,2.14515866358,0.161915265261,73.3452870398,2.98784366656,0.158990326891,0.988207905286,3.2924906344,1.0,613.308516524,0.879110824503
102,2.51757400885,1.66084491034,35.5848371526,2.14485994684,0.161263225557,73.4743112375,2.98506178826,0.158270759966,0.987778435626,3.29513954784,1.0,613.287829669,0.86606633553
103,2.52154926882,1.67108842944,35.3817812776,2.14458444904,0.160585080342,73.6027230839,2.98236770169,0.157495791431,0.987355364201,3.2976677452,1.0,613.265337861,0.853586349216
104,2.5254762226,1.68127542015,35.1811586338,2.14433170579,0.159881052009,73.7305178031,2.97975934616,0.156666145176,0.986939083952,3.30007573387,1.0,613.241011599,0.841679589917
105,2.52935600427,1.69140640929,34.9829150137,2.14410126966,0.159151359882,73.8576913962,2.97723473467,0.155782609733,0.986529960265,3.302364046,1.0,613.214819262,0.830354801733
106,2.53318971067,1.70148191411,34.7869979212,2.14389270943,0.158396220288,73.9842405837,2.97479195073,0.154846036368,0.986128333517,3.30453323873,1.0,613.186727022,0.819620647724
107,2.53697840296,1.7115024426,34.5933565032,2.14370560942,0.15932906228,74.1101627522,2.97242914543,0.157156452913,0.985728689491,3.30839499954,1.0,613.255419191,0.79923225821
108,2.5407231081,1.72146849364,34.4019414837,2.1435395688,0.158533641118,74.2354559047,2.97014453456,0.15612508086,0.985342252683,3.31036960436,1.0,613.225007108,0.789390459378
109,2.54442482027,1.73138055722,34.212705102,2.14339420103,0.157713350127,74.3601186142,2.96793639604,0.155042110985,0.984964105004,3.31222653304,1.0,613.192636418,0.790630007057
110,2.54808450222,1.74123911471,34.0256010531,2.14326913321,0.156868394794,74.4841499809,2.96580306726,0.15390862288,0.984594502528,3.31396643699,1.0,613.158265913,0.79922840336
111,2.55170308652,1.75104463897,33.8405844305,2.14316400555,0.155998977929,74.6075495929,2.96374294272,0.15272574951,0.984233686699,3.31558999308,1.0,613.121851805,0.807193593861
112,2.55528147679,1.76079759464,33.6576116737,2.14307847085,0.156867859865,74.7303174882,2.96175447168,0.154894420318,0.983875289398,3.31911457827,1.0,613.188186637,0.826456908609
113,2.55882054884,1.77049843826,33.4766405158,2.14301219397,0.155959828484,74.8524541211,2.959836156,0.153618031884,0.983531570231,3.32054749162,1.0,613.149372389,0.83343829221
114,2.56232115177,1.78014761849,33.2976299345,2.14296485136,0.155027876781,74.9739603299,2.95798654803,0.152294459201,0.983197158586,3.321865828,1.0,613.108433501,0.839762004117
