,theta i [rad],r orb [AU],v orb [km s-1],ang orb [rad],r L1 [AU],v i [km s-1],ang i [rad],a p [AU],e p,theta p i [rad],flag impact,v imp [km s-1],ang imp [rad]
0,0.0,0.14985,158.020657798,1.57079632679,0.0711000035097,15.8020657798,1.57079632679,0.0359092355545,0.979992122135,3.14159265359,1.0,597.509430937,1.15441675774
1,0.355213327836,0.154461945486,155.539617134,1.74060703039,0.0723605545884,28.5268571592,2.74254460927,0.0374219579857,0.990266882086,3.16558667489,1.0,598.344735175,1.27832785692
2,0.672619919655,0.167275781006,149.185348919,1.89192372621,0.075349454574,47.0929646815,3.1555988631,0.0415909232643,0.999966536797,3.13895526145,1.0,600.327627095,1.55298872381
3,0.935399849513,0.186015936727,141.084374936,2.01656286967,0.0787635085916,62.6317619605,3.38213819047,0.0476831919771,0.983543480717,3.05959063002,1.0,602.593702041,1.13790997234
4,1.14583268698,0.208441468575,132.840605514,2.11570183945,0.0811649002511,74.5659667229,3.53547214202,0.0544209648911,0.942489513703,2.94917817698,1.0,604.50240913,0.972765360832
5,1.3136790614,0.232924716651,125.210824659,2.19415929894,0.081838418292,83.5922607578,3.6481636398,0.0603731032681,0.891266619436,2.82979976776,0.0,0.0,0.0
6,1.44896880786,0.25843313036,118.419775816,2.25686008878,0.0809705449311,90.4837440899,3.73492387671,0.064625892521,0.841055768616,2.71719724346,0.0,0.0,0.0
7,1.55975559679,0.284347002413,112.456214371,2.30774452582,0.0791275990877,95.8416532314,3.80397296019,0.0670065373657,0.796339620747,2.61937101843,0.0,0.0,0.0
8,1.65200855962,0.310301992032,107.228192308,2.34972383938,0.0767213183754,100.091867569,3.86038055138,0.0676673152355,0.757743932904,2.53934088668,0.0,0.0,0.0
9,1.73005346813,0.336086054798,102.628351747,2.32748750297,0.0814142445643,97.6389306397,3.89029072051,0.0723477556374,0.737525341561,2.5088141494,0.0,0.0,0.0
10,1.79702852132,0.361577528108,98.5574111033,2.29758996184,0.0865035378343,94.8160873873,3.78683513237,0.0769877350486,0.802404408175,2.5891210166,0.0,0.0,0.0
11,1.85523547136,0.386708768505,94.9306129535,2.271859634,0.0909675332373,92.7596045769,3.6939111836,0.0813721159798,0.853555520131,2.66182078982,0.0,0.0,0.0
12,1.90638776795,0.411444740954,91.6778598777,2.24947035518,0.0947270225809,91.2841021352,3.61030205701,0.0853046825678,0.893546260218,2.72875326748,0.0,0.0,0.0
13,1.95178134995,0.435770255395,88.7418469479,2.22979895443,0.0977102526402,90.25100543,3.53491700575,0.088578518054,0.924484781525,2.79101987156,0.0,0.0,0.0
14,1.9924118587,0.459682238672,86.0758235014,2.21236792976,0.0998509019196,89.5563267392,3.46678449454,0.0909804930348,0.948101298491,2.84926151414,0.0,0.0,0.0
15,2.02905568618,0.483184982166,83.641545806,2.19680589698,0.102054090594,89.1216328647,3.40504531425,0.093927724379,0.965759452705,2.90147135374,1.0,610.148608083,0.988086579092
16,2.06232670134,0.506287179753,81.4075685906,2.1828199643,0.103385975958,88.8874244924,3.34894435413,0.0957762616206,0.978716241724,2.95095435906,1.0,610.298009274,0.840923238738
17,2.09271651288,0.529000061165,79.3478736703,2.1701761627,0.104317334744,88.8082934117,3.29782119321,0.097237177672,0.987886088685,2.99683258358,1.0,610.412039199,1.03801142555
18,2.1206234644,0.551336206897,77.4407873603,2.15868537949,0.10485874346,88.849375252,3.25110013261,0.0982615889978,0.994037126841,3.03946675983,1.0,610.489963652,1.20387473527
19,2.14637381731,0.573308794345,75.6681308193,2.1481931004,0.105020535354,88.9837422881,3.20828028316,0.0988083267512,0.997786000008,3.07910396419,1.0,610.53088736,1.34960090139
20,2.17023743969,0.594931118807,74.0145534145,2.13857182567,0.104812695105,89.1904782582,3.1689261634,0.0988449293676,0.999627824728,3.1159098149,1.0,610.533610826,1.48066399943
21,2.19243958054,0.616216293642,72.4670080124,2.12971538827,0.104861637097,89.4532490658,3.13265907474,0.0994525207887,0.999960213895,3.15004033175,1.0,610.578524876,1.54127184384
22,2.21316981352,0.63717706548,71.014336156,2.12153464526,0.104601645965,89.7592353561,3.09914938203,0.0995950724772,0.999101696347,3.18190105321,1.0,610.588982664,1.42999349422
23,2.23258891107,0.657825706444,69.6469381229,2.11395417164,0.104040507747,90.0983304405,3.06810971861,0.0992550907237,0.997307625357,3.21152635689,1.0,610.563991227,1.32591185823
24,2.25083418405,0.678173956007,68.3565089448,2.10690969647,0.103864485409,90.4625338142,3.03928907867,0.0996659276268,0.994780854635,3.23957148509,1.0,610.594169498,1.22598237413
25,2.26802367125,0.698232995285,67.1358258542,2.10034609432,0.103441930921,90.8454896807,3.01246772345,0.0996618372905,0.991686979801,3.26579261598,1.0,610.593870273,1.13043786847
26,2.28425945841,0.718013443333,65.9785759915,2.09421579666,0.102778706824,91.2421336492,2.9874528123,0.0992329022668,0.988159184972,3.29018076633,1.0,610.562354206,1.03884812029
27,2.29963032969,0.737525366415,64.8792159401,2.08847752469,0.101880386706,91.6484205848,2.96407467007,0.0983753890827,0.984305124077,3.31271868561,1.0,610.498519383,0.950934695939
28,2.31421390375,0.756778295726,63.8328564807,2.08309527001,0.101509807216,92.0611137391,2.94218360368,0.0985088740997,0.980202386095,3.33484524755,1.0,610.508529723,0.860307753731
29,2.32807836814,0.775781250513,62.8351674576,2.07803746823,0.100952520896,92.477620438,2.92164718875,0.0982944516512,0.975927182982,3.35549264534,1.0,610.492436382,0.800414569015
30,2.34128389742,0.794542763867,61.8822988192,2.0732763243,0.100212606689,92.8958633435,2.90234795706,0.0977286278029,0.971535905641,3.37463778274,1.0,610.449627715,0.89036235668
31,2.3538838202,0.813070909039,60.9708147565,2.06878725811,0.0992939507151,93.3141790428,2.88418142469,0.0968121854256,0.967074281884,3.39225557448,1.0,610.379224113,0.981311417525
32,2.3659255864,0.831373326607,60.0976384191,2.06454844557,0.0982002586866,93.7312377901,2.86705440734,0.0955502493246,0.962579848385,3.4083197177,1.0,610.280054781,1.07478403019
33,2.37745157313,0.849457250722,59.2600053271,2.06054043696,0.0977853751166,94.1459796687,2.85088357955,0.0955630441056,0.958064061503,3.42534424994,1.0,610.281073485,1.19450146673
34,2.38849976014,0.867329534492,58.4554239068,2.05674583733,0.0972381519435,94.5575635916,2.83559423976,0.0953118806544,0.95356609627,3.44120633167,1.0,610.261025857,1.35246888057
35,2.39910429892,0.884996674156,57.6816419109,2.05314903776,0.0965612046362,94.9653263843,2.8211192497,0.0947959492486,0.949104523134,3.45588533906,0.0,0.0,0.0
36,2.4092959946,0.902464831944,56.9366177235,2.04973598796,0.0957570351898,95.3687498256,2.80739812137,0.0940169234322,0.944694323434,3.46936078636,0.0,0.0,0.0
37,2.41910271592,0.919739857549,56.2184957384,2.04649400323,0.0948280393556,95.7674339977,2.79437622921,0.092978966354,0.940347904546,3.4816125489,0.0,0.0,0.0
38,2.42854974563,0.936827308231,55.5255851483,2.04341159955,0.0937765133452,96.1610756627,2.78200412875,0.0916886777295,0.936075992242,3.49262104351,0.0,0.0,0.0
39,2.43766008125,0.953732467633,54.8563416017,2.04047835232,0.0935593471974,96.5494506612,2.77023696566,0.0919825193568,0.931857015146,3.50627267222,0.0,0.0,0.0
40,2.44645469407,0.970460362955,54.2093512987,2.03768477484,0.0922860265495,96.9323995325,2.75903396246,0.0902276368772,0.927751612442,3.51497192871,0.0,0.0,0.0
41,2.4549527535,0.987015781592,53.5833171161,2.03502221321,0.0918843581018,97.3098157538,2.74835797073,0.0901290720278,0.923704579058,3.52674837682,0.0,0.0,0.0
42,2.46317182164,1.003403286,52.9770465088,2.03248275525,0.0914011062011,97.6816360744,2.73817508037,0.0898587544816,0.919749433575,3.53768421367,0.0,0.0,0.0
43,2.47112802272,1.01962722751,52.3894409059,2.03005915132,0.0908376669974,98.0478325607,2.72845427753,0.0894172317755,0.915887528518,3.54776746548,0.0,0.0,0.0
44,2.4788361915,1.03569175963,51.8194863719,2.02774474508,0.0901953845684,98.4084060488,2.71916714396,0.088806139875,0.912119776456,3.55698673205,0.0,0.0,0.0
45,2.4863100032,1.05160084999,51.2662453912,2.02553341295,0.0894755539119,98.7633807259,2.71028759292,0.0880281924999,0.908446939107,3.56533121535,0.0,0.0,0.0
46,2.4935620877,1.06735829125,50.7288496069,2.02341951087,0.0886794237197,99.1127996457,2.70179163625,0.0870871528424,0.904869884555,3.57279074162,0.0,0.0,0.0
47,2.50060413056,1.08296771188,50.2064933685,2.02139782738,0.0878081989969,99.4567210242,2.6936571783,0.0859877884415,0.901389815843,3.5793557806,0.0,0.0,0.0
48,2.50744696214,1.09843258563,49.698428013,2.01946354225,0.0879625755686,99.7952151589,2.68586383364,0.0868539843318,0.897958072594,3.59106547725,0.0,0.0,0.0
49,2.51410063666,1.11375624027,49.2039567748,2.01761218977,0.0869599528503,100.128361869,2.67839276534,0.0854652075868,0.894661457427,3.59605779095,0.0,0.0,0.0
50,2.52057450272,1.12894186637,48.7224302188,2.01583962613,0.0870155454189,100.456248384,2.67122654075,0.0861188778981,0.891414910988,3.6066650917,0.0,0.0,0.0
51,2.52687726576,1.14399252454,48.2532421836,2.01414200046,0.0858853308474,100.778967574,2.66434900344,0.0844513702509,0.888298616765,3.61005610513,0.0,0.0,0.0
52,2.53301704434,1.15891115312,47.7958261139,2.01251572892,0.0858452767905,101.096616495,2.65774515848,0.0848915658172,0.885227095861,3.61953638467,0.0,0.0,0.0
53,2.53900142008,1.17370057446,47.3496517922,2.01095747153,0.084591038596,101.409295172,2.65140107006,0.0829612998801,0.882291153315,3.62130160773,0.0,0.0,0.0
54,2.54483748285,1.18836350162,46.9142223693,2.00946411146,0.0844582730908,101.717105599,2.64530376942,0.0831910934508,0.879385629701,3.62963361131,0.0,0.0,0.0
55,2.55053187112,1.20290254376,46.489071711,2.00803273635,0.0842874717442,102.020150904,2.63944117258,0.0833408050473,0.87656610657,3.63750700574,0.0,0.0,0.0
56,2.55609080854,1.21732021206,46.0737619735,2.00666062155,0.0840791800286,102.318534668,2.63380200583,0.0834098236453,0.873829644693,3.64491777583,0.0,0.0,0.0
57,2.56152013679,1.23161892444,45.6678814331,2.00534521502,0.0826010752423,102.612360362,2.62837573905,0.080992673625,0.871224131127,3.643617928,0.0,0.0,0.0
58,2.5668253454,1.2458010105,45.2710424986,2.00408412363,0.0823051781074,102.901730882,2.62315252523,0.0808615027343,0.868638246508,3.64984774488,0.0,0.0,0.0
59,2.5720115988,1.2598687161,44.8828799103,2.00287510079,0.0819734462356,103.186748181,2.61812314579,0.0806518879798,0.866128763911,3.6556048315,0.0,0.0,0.0
60,2.57708376068,1.27382420725,44.5030491095,2.00171603526,0.0816063618752,103.467512959,2.61327896127,0.0803643564223,0.863693462645,3.66088640396,0.0,0.0,0.0
61,2.58204641643,1.28766957438,44.1312247359,2.00060494093,0.0812043938359,103.744124426,2.60861186631,0.079999679916,0.861330338611,3.66568995633,0.0,0.0,0.0
62,2.58690389329,1.3014068357,43.7670992731,1.99953994762,0.0807679980748,104.016680104,2.60411424904,0.079558871023,0.859037635244,3.67001325423,0.0,0.0,0.0
63,2.59166027893,1.31503794085,43.4103817968,1.99851929256,0.0802976182801,104.285275679,2.59977895395,0.079043177047,0.856813870943,3.67385432917,0.0,0.0,0.0
64,2.59631943836,1.32856477418,43.0607968324,1.99754131274,0.0797936864135,104.550004894,2.59559924805,0.078454072169,0.854657863388,3.67721147354,0.0,0.0,0.0
65,2.60088502934,1.34198915756,42.718083314,1.99660443785,0.0792566232023,104.81095945,2.5915687902,0.0777932477672,0.852568750982,3.68008323615,0.0,0.0,0.0
66,2.60536051661,1.35531285362,42.381993615,1.99570718385,0.0800435081547,105.068228964,2.58768160277,0.0797088208878,0.850476618691,3.69290670949,0.0,0.0,0.0
67,2.60974918484,1.36853756808,42.0522926729,1.99484814705,0.0794546398786,105.321900915,2.58393204609,0.0789222293581,0.848502954776,3.69504582775,0.0,0.0,0.0
68,2.61405415059,1.38166495254,41.7287571714,1.99402599872,0.0788337423336,105.572060632,2.58031479471,0.0780670641975,0.846591776532,3.69669597176,0.0,0.0,0.0
69,2.61827837334,1.3946966069,41.411174788,1.9932394801,0.0781811974869,105.818791284,2.57682481582,0.0771457747985,0.844743425159,3.69785659316,0.0,0.0,0.0
70,2.62242466554,1.40763408143,41.0993435085,1.99248739779,0.0774973781667,106.062173886,2.57345734941,0.0761609730217,0.842958635727,3.69852738672,0.0,0.0,0.0
71,2.62649570194,1.42047887907,40.7930709838,1.99176861959,0.0782045492081,106.302287312,2.57020788999,0.0778861408792,0.841155810821,3.71034906928,0.0,0.0,0.0
72,2.63049402831,1.43323245754,40.4921739366,1.99108207057,0.0774720310546,106.539208322,2.56707216975,0.076779941592,0.839467275397,3.71027789883,0.0,0.0,0.0
73,2.63442206926,1.44589623098,40.1964776193,1.99042672949,0.0767092157809,106.773011585,2.56404614316,0.0756158021585,0.837841898228,3.70971625326,0.0,0.0,0.0
74,2.6382821357,1.45847157201,39.9058153023,1.98980162549,0.0759164445189,107.003769719,2.56112597259,0.0743968877809,0.836281826739,3.70866468979,0.0,0.0,0.0
75,2.64207643162,1.47095981333,39.6200278048,1.98920583497,0.0765664831061,107.231553325,2.55830801519,0.0759718796543,0.834669211753,3.7197127579,0.0,0.0,0.0
76,2.64580706046,1.48336224944,39.3389630552,1.98863847884,0.0757272082666,107.456431033,2.55558881068,0.0746388173735,0.833196372804,3.71791744104,0.0,0.0,0.0
77,2.64947603097,1.49568013807,39.0624756878,1.98809871977,0.0748588721188,107.678469545,2.55296507003,0.0732580587019,0.831791942305,3.71563373423,0.0,0.0,0.0
78,2.65308526262,1.50791470166,38.7904266621,1.98758575983,0.0754712126392,107.897733679,2.55043366508,0.0747365328143,0.830313380118,3.72615331571,0.0,0.0,0.0
79,2.65663659079,1.52006712891,38.5226829089,1.98709883815,0.07455785352,108.114286418,2.54799161879,0.073247962708,0.828992170988,3.72312714078,0.0,0.0,0.0
80,2.66013177137,1.53213857584,38.2591170048,1.98663722887,0.0751499465125,108.328188957,2.54563609629,0.0746896605663,0.827619190112,3.73336962262,0.0,0.0,0.0
81,2.66357248526,1.54413016724,37.9996068629,1.98620023909,0.0741924468309,108.539500753,2.5433643965,0.0730964604369,0.826377863622,3.7296024757,0.0,0.0,0.0
82,2.66696034243,1.55604299777,37.744035447,1.98578720711,0.0747648350849,108.748279572,2.54117394439,0.0744987123001,0.825101589929,3.73956531169,0.0,0.0,0.0
83,2.6702968858,1.5678781332,37.4922905029,1.98539750066,0.0737640426663,108.954581538,2.53906228373,0.0728047141713,0.823938061531,3.73505954905,0.0,0.0,0.0
84,2.67358359478,1.57963661131,37.244264309,1.98503051534,0.0743172443393,109.158461182,2.53702707038,0.0741650865499,0.822749926242,3.7447408622,0.0,0.0,0.0
85,2.67682188864,1.59131944306,36.9998534412,1.98468567311,0.0732739747256,109.359971485,2.53506606602,0.0723747374405,0.821663397949,3.73949965182,0.0,0.0,0.0
86,2.68001312966,1.60292761357,36.758958551,1.98436242091,0.0722039529406,109.559163933,2.53317713226,0.0705600436334,0.820662730612,3.73378106085,0.0,0.0,0.0
87,2.68315862606,1.61446208296,36.5214841626,1.98406022931,0.0727235236338,109.756088551,2.53135822523,0.0718093724676,0.819546168666,3.74292546331,0.0,0.0,0.0
88,2.68625963475,1.62592378731,36.2873384766,1.98377859137,0.0732398166224,109.950793961,2.52960739046,0.0730797401785,0.818510078054,3.75204049955,0.0,0.0,0.0
89,2.68931736391,1.63731363948,36.0564331895,1.9835170214,0.072113920441,110.143327415,2.52792275806,0.0711122545739,0.817580379316,3.74534097077,0.0,0.0,0.0
90,2.69233297545,1.64863252997,35.8286833213,1.98327505396,0.0726124501524,110.333734844,2.5263025383,0.0723350661301,0.816609027673,3.75417231627,0.0,0.0,0.0
91,2.69530758724,1.65988132763,35.6040070567,1.98305224281,0.071446349828,110.522060898,2.52474501744,0.0702877645564,0.815761772108,3.7467514036,0.0,0.0,0.0
92,2.69824227529,1.67106088043,35.3823255925,1.98284815998,0.0719275518004,110.708348985,2.52324855376,0.0714617150643,0.814848238605,3.75529931204,0.0,0.0,0.0
93,2.70113807576,1.68217201617,35.1635629956,1.98266239487,0.0707219530289,110.892641313,2.5218115739,0.0693409702801,0.814087834514,3.74716318293,0.0,0.0,0.0
94,2.70399598686,1.69321554317,34.9476460678,1.98249455343,0.0711862454556,111.074978929,2.52043256942,0.0704650595592,0.813225672999,3.75542831386,0.0,0.0,0.0
95,2.70681697061,1.70419225089,34.7345042206,1.98234425736,0.0699418305207,111.255401751,2.51911009355,0.0682775591277,0.812557791896,3.74658388781,0.0,0.0,0.0
96,2.70960195456,1.71510291056,34.5240693546,1.98221114335,0.0703896153517,111.433948611,2.51784275817,0.0693510911595,0.811741042289,3.75456726304,0.0,0.0,0.0
97,2.71235183338,1.72594827578,34.3162757464,1.98209486243,0.070834720431,111.610657283,2.51662923088,0.0704402670074,0.810991138089,3.76251622049,0.0,0.0,0.0
98,2.71506747033,1.73672908309,34.1110599433,1.98199507927,0.0695387084424,111.785564523,2.51546823237,0.0681263408934,0.810395780243,3.75272520238,0.0,0.0,0.0
99,2.71774969873,1.74744605251,33.9083606612,1.98191147157,0.0699678163268,111.958706097,2.51435853386,0.0691631624925,0.809682711289,3.76039353726,0.0,0.0,0.0
100,2.72039932323,1.75809988804,33.7081186897,1.98184372947,0.0703943963284,112.130116817,2.5132989547,0.0702145716196,0.809032990323,3.76802572266,0.0,0.0,0.0
101,2.72301712114,1.76869127824,33.5102768018,1.98179155502,0.0690480142826,112.299830566,2.51228836013,0.0677822132056,0.808511901303,3.75730179727,0.0,0.0,0.0
102,2.72560384361,1.7792208966,33.3147796686,1.98175466161,0.0694590804649,112.467880333,2.51132565914,0.0687798323262,0.807891147319,3.76465522413,0.0,0.0,0.0
103,2.72816021675,1.7896894021,33.121573778,1.98173277353,0.0698677608598,112.634298238,2.51040980246,0.069790959003,0.807330333826,3.77197115108,0.0,0.0,0.0
104,2.7306869427,1.80009743959,32.9306073583,1.98172562545,0.0684721813095,112.799115561,2.5095397807,0.0672491885544,0.80688790478,3.76032937774,0.0,0.0,0.0
105,2.73318468764,1.81044558603,32.7418312914,1.98173296195,0.0688658044974,112.962361917,2.50871462674,0.0682054634841,0.806348923298,3.76736900398,0.0,0.0,0.0
106,2.73565411605,1.82073448864,32.5551965243,1.98175453704,0.0692571741661,113.124067452,2.50793340282,0.0691741544894,0.805866588237,3.77437010988,0.0,0.0,0.0
107,2.73809589339,1.83096487496,32.3706538723,1.98179011448,0.0678135203243,113.284263002,2.50719519988,0.0665328847769,0.805509757285,3.76182688056,0.0,0.0,0.0
108,2.74050973722,1.84113354412,32.1882257319,1.98183944574,0.0681901377006,113.442917647,2.5064994046,0.0674457351103,0.80504300811,3.76855237905,0.0,0.0,0.0
109,2.74289455628,1.85123384983,32.0079955664,1.98190224633,0.0685642230971,113.599947299,2.50584559559,0.0683689008671,0.804630122025,3.77523146316,0.0,0.0,0.0
110,2.74525287139,1.86127448392,31.8297738047,1.98197832748,0.0670729608191,113.755506104,2.50523236791,0.0656373865387,0.804369078684,3.76179361269,0.0,0.0,0.0
111,2.74758553664,1.87125722663,31.653496796,1.98206748612,0.0674326992951,113.909639398,2.50465884912,0.0665043946523,0.803965964171,3.76820045009,0.0,0.0,0.0
112,2.74989335865,1.88118374254,31.4791044366,1.98216953212,0.0677904115801,114.062389997,2.5041242181,0.0673815721245,0.803613138537,3.77456741056,0.0,0.0,0.0
113,2.752177099,1.89105558449,31.3065399881,1.98228428727,0.066253205106,114.213798303,2.50362770146,0.0645726875207,0.803458933888,3.76026528983,0.0,0.0,0.0
114,2.75443747657,1.90087419749,31.1357499037,1.98241158436,0.0665972005564,114.363902422,2.50316857019,0.0653943918223,0.803110694596,3.76636808137,0.0,0.0,0.0
115,2.75667516977,1.9106409226,30.9666836629,1.98255126623,0.0669393781128,114.512738265,2.50274613651,0.0662254764351,0.802809811051,3.77243257084,0.0,0.0,0.0
116,2.75889081865,1.92035700082,30.7992936132,1.98270318496,0.0672797812536,114.660339659,2.50235975088,0.067066195267,0.802555877755,3.77845820403,0.0,0.0,0.0
117,2.76108502694,1.93002357693,30.6335348193,1.98286720112,0.0656864945607,114.806738443,2.50200879924,0.0641279285961,0.802475331149,3.76309879108,0.0,0.0,0.0
118,2.76325836397,1.93964170334,30.4693649192,1.98304318294,0.0660138382021,114.951964565,2.50169270038,0.0649129535004,0.802219420554,3.7688688985,0.0,0.0,0.0
119,2.76541136649,1.9492123438,30.3067439874,1.98323100571,0.0663395657053,115.096046177,2.50141090352,0.0657067545522,0.802007837694,3.77460122415,0.0,0.0,0.0
120,2.76754454045,1.95873637718,30.1456344032,1.98343055108,0.0666637069816,115.239009722,2.50116288598,0.066509542926,0.801840224792,3.78029507815,0.0,0.0,0.0
