,theta i [rad],r orb [AU],v orb [km s-1],ang orb [rad],r L1 [AU],v i [km s-1],ang i [rad],a p [AU],e p,theta p i [rad],flag impact,v imp [km s-1],ang imp [rad]
0,0.0,0.2952,110.188853636,1.57079632679,0.140064868375,11.0188853636,1.57079632679,0.0707100119381,0.980835026547,3.14159265359,1.0,607.601291402,0.992787929455
1,0.127998119977,0.296303709689,109.965072239,1.62907093991,0.140291950146,12.3918200192,2.11394790054,0.071007927833,0.982266134036,3.15252858464,1.0,607.644616353,1.01594047882
2,0.254118602655,0.299580786896,109.307717366,1.6864451269,0.141243797952,15.7351251495,2.50074915809,0.0720414997062,0.986093541761,3.16074769993,1.0,607.792124179,1.08123203873
3,0.376659197963,0.304933413332,108.256215462,1.74210335113,0.142851692679,19.920918327,2.75549850719,0.0737826983516,0.991191053438,3.16407950111,1.0,608.031200683,1.18197988741
4,0.494228699673,0.312211815363,106.868693091,1.7953805338,0.145011297199,24.3223820694,2.93391814578,0.0761884372398,0.996081081979,3.16117543335,1.0,608.343401382,1.31075030479
5,0.605819035371,0.321230503776,105.21321803,1.84579673286,0.147270845188,28.6467014739,3.06857445568,0.0790163438107,0.999324264776,3.15150911491,1.0,608.685896474,1.46182016605
6,0.710812253829,0.33178535378,103.359388441,1.8930602304,0.149784983198,32.7549878599,3.17614188563,0.0823493711275,0.999803459752,3.135339375,1.0,609.059148015,1.51091021178
7,0.808938120618,0.34366863222,101.371903056,1.937046714,0.152741618031,36.5834810132,3.26550032741,0.0863128766137,0.996881589544,3.11324679682,1.0,609.46522249,1.32458685306
8,0.900204778485,0.356680388316,99.3066905732,1.97776549526,0.155311283969,40.1090302469,3.34173879404,0.0903799137192,0.990391152934,3.08616925703,1.0,609.844636062,1.11874079712
9,0.984822570903,0.370635875864,97.2093482136,2.01532253062,0.158048935881,43.3316098576,3.40800394867,0.0948917858846,0.980506140533,3.05485563313,1.0,610.227255603,0.882101340796
10,1.06313439262,0.385369498792,95.1152408375,2.04988671263,0.160474189581,46.2642565079,3.46638125859,0.0994929247673,0.967690302078,3.02032467114,1.0,610.581492029,0.987390002042
11,1.13555902076,0.400736130437,93.0505685375,2.08166253024,0.162460597392,48.9268771674,3.5183373351,0.104026380528,0.952554296244,2.98353627938,0.0,0.0,0.0
12,1.20254883247,0.41661067858,91.0338539641,2.11086974565,0.164308920322,51.3423804334,3.56495450682,0.108677755587,0.935652821135,2.94492942689,0.0,0.0,0.0
13,1.26456049613,0.432886622699,89.0774904214,2.13772937371,0.165961542151,53.5343051179,3.60706222723,0.113362730421,0.917557306918,2.90508731633,0.0,0.0,0.0
14,1.32203608173,0.449474052046,87.1891549201,2.16245470523,0.166921799304,55.5254314029,3.64531479203,0.117547536241,0.898953797609,2.8653642124,0.0,0.0,0.0
15,1.37539191677,0.466297553062,85.3730035007,2.18524606635,0.167568394219,57.33703032,3.68023979527,0.121498627175,0.880165016632,2.82577718511,0.0,0.0,0.0
16,1.42501287109,0.483294155218,83.6306335193,2.20628818562,0.167870947164,58.9885177634,3.71226988626,0.12511672715,0.861543387494,2.7868504104,0.0,0.0,0.0
17,1.47125025221,0.500411444907,81.96183213,2.22574928662,0.167805644124,60.497355769,3.74176454183,0.128303801964,0.843359011614,2.74909092722,0.0,0.0,0.0
18,1.51442198142,0.517605895254,80.3651437929,2.2437812631,0.167354062746,61.8790977106,3.76902559116,0.130965421442,0.82580718781,2.71299099153,0.0,0.0,0.0
19,1.5548141214,0.534841421818,78.8382920371,2.26052048913,0.167037565763,63.1475110767,3.79430865626,0.133698247193,0.808744294433,2.67725361375,0.0,0.0,0.0
20,1.59268312937,0.552088153034,77.3784876879,2.27608896407,0.166344883611,64.3147364359,3.81783181188,0.135837742966,0.792496685288,2.64366011142,0.0,0.0,0.0
21,1.62825842978,0.569321393993,75.9826506868,2.29059559878,0.165268477473,65.3914576412,3.83978228306,0.137312734417,0.777107061287,2.6126229603,0.0,0.0,0.0
22,1.66174505591,0.586520759808,74.6475671562,2.30413752431,0.164390207758,66.3870690108,3.86032171628,0.138899624905,0.762281091185,2.58205074642,0.0,0.0,0.0
23,1.69332621036,0.603669454123,73.3699986027,2.31680135269,0.163153911396,67.3098318215,3.87959038616,0.139809292427,0.748298183591,2.55429457455,0.0,0.0,0.0
24,1.72316566049,0.620753669312,72.1467561706,2.32866435138,0.162178891513,68.1670165121,3.89771059015,0.140935849335,0.73481847288,2.52667913301,0.0,0.0,0.0
25,1.75140993151,0.637762089178,70.974749514,2.33979551446,0.160876928393,68.9650295215,3.90639426767,0.141404641032,0.727792383787,2.50817707918,0.0,0.0,0.0
26,1.77819028281,0.654685476145,69.8510174959,2.35025652527,0.159247823579,69.7095249812,3.91118469662,0.141188443896,0.723688732543,2.49530078119,0.0,0.0,0.0
27,1.80362447288,0.671516329391,68.7727458989,2.35228636679,0.159980872353,69.8680587279,3.8998292401,0.142852061329,0.730716508368,2.49643461757,0.0,0.0,0.0
28,1.82781832182,0.68824860014,67.7372761068,2.34300566737,0.163278201527,69.2717318926,3.86607025009,0.146171199499,0.752851954205,2.52032459739,0.0,0.0,0.0
29,1.85086709067,0.704877455467,66.7421074491,2.33424585258,0.165812019159,68.7429965069,3.83364690216,0.14844835939,0.773546181515,2.54617871302,0.0,0.0,0.0
30,1.87285669422,0.721399081582,65.7848952827,2.32596686207,0.168976366569,68.2754642216,3.80250229904,0.151914154501,0.792438920535,2.5677939066,0.0,0.0,0.0
31,1.89386476494,0.737810519232,64.8634462899,2.31813256689,0.171343388976,67.863373502,3.77258152846,0.154264315338,0.810081869116,2.59131836253,0.0,0.0,0.0
32,1.91396158686,0.754109526661,63.9757119692,2.31071032047,0.173618815086,67.5015278005,3.74383164887,0.156626835556,0.82635776942,2.61379296393,0.0,0.0,0.0
33,1.93321091404,0.770294464598,63.1197811081,2.30367056569,0.175802946027,67.1852392126,3.71620167864,0.158995287216,0.841368886311,2.63532433978,0.0,0.0,0.0
34,1.95167068844,0.786364199816,62.2938717354,2.29698649083,0.17710905919,66.9102773617,3.68964258395,0.160072994769,0.855341482636,2.65841720035,0.0,0.0,0.0
35,1.96939367006,0.80231802408,61.4963229143,2.29063372811,0.179096020576,66.6728231971,3.66410726328,0.162400582048,0.868084430449,2.67821444518,0.0,0.0,0.0
36,1.98642799043,0.81815558589,60.7255866187,2.28459008914,0.180993383064,66.4694273463,3.63955052672,0.164715730969,0.879826808156,2.69730851597,0.0,0.0,0.0
37,2.00281763959,0.833876832919,59.9802198552,2.27883533274,0.181967121918,66.2969726479,3.6159290696,0.165624964872,0.890736835026,2.71787324942,0.0,0.0,0.0
38,2.01860289491,0.849481963368,59.25887713,2.27335096055,0.183671781101,66.1526404983,3.59320144001,0.167862035519,0.900684520902,2.73563471273,0.0,0.0,0.0
39,2.03382069946,0.864971384808,58.5603033224,2.26812003714,0.185289170766,66.0338806568,3.57132800069,0.170070500682,0.909840203859,2.75284514098,0.0,0.0,0.0
40,2.04850499626,0.880345679308,57.8833269936,2.26312703119,0.185938882482,65.9383841748,3.55027088555,0.170753338879,0.918327196707,2.77140861956,0.0,0.0,0.0
41,2.06268702421,0.895605573905,57.2268541378,2.25835767516,0.187368939165,65.86405914,3.52999395161,0.172850511133,0.92606215742,2.78754716388,0.0,0.0,0.0
42,2.07639558012,0.910751915203,56.589862389,2.25379884111,0.187802702534,65.8090089485,3.51046272752,0.173344444427,0.933220045815,2.80495380568,0.0,0.0,0.0
43,2.08965725198,0.925785648379,55.9713956275,2.24943843038,0.188122614555,65.7715128427,3.49164435815,0.17372236922,0.939785034826,2.82179462103,0.0,0.0,0.0
44,2.10249662607,0.940707798808,55.3705590195,2.24526527579,0.189271544438,65.7500084814,3.47350754765,0.175593761658,0.9457607654,2.83651887356,0.0,0.0,0.0
45,2.1149364714,0.955519456395,54.7865144414,2.2412690545,0.189382239959,65.7430763256,3.45602250093,0.175752670065,0.951275266502,2.85237809235,0.0,0.0,0.0
46,2.12699790497,0.970221762711,54.218476245,2.23744021024,0.190353824683,65.7494256471,3.43916086357,0.177463218406,0.956289488378,2.86629698577,0.0,0.0,0.0
47,2.13870053903,0.9848158996,53.6657073788,2.23376988399,0.190259733743,65.767881989,3.42289566199,0.177385762267,0.960905774319,2.88125857564,0.0,0.0,0.0
48,2.1500626131,0.999303079409,53.1275158218,2.23024985188,0.191057951519,65.7973759203,3.40720124385,0.178918390735,0.965097280299,2.89443953625,0.0,0.0,0.0
49,2.16110111269,1.01368453715,52.603251286,2.22687246948,0.190763461867,65.8369329487,3.39205321842,0.178589535624,0.968945683101,2.90856967924,0.0,0.0,0.0
50,2.17183187586,1.02796152344,52.0923022011,2.2236306219,0.191392241034,65.8856644661,3.37742839853,0.179928776211,0.972433355555,2.92106597597,0.0,0.0,0.0
51,2.18226968888,1.04213529831,51.5940929461,2.22051767887,0.190901666712,65.9427596155,3.36330474381,0.179335978997,0.975625469088,2.93441712453,1.0,613.824502819,1.32536535732
52,2.19242837319,1.05620712671,51.1080812796,2.21752745417,0.191364860262,66.0074779843,3.34966130482,0.18046815196,0.978511195727,2.94627103839,1.0,613.849787527,1.1537829405
53,2.20232086312,1.07017827369,50.6337560084,2.2146541693,0.190682420624,66.0791430314,3.33647816974,0.179601555313,0.981142596607,2.95888494622,1.0,613.830462621,1.02561062466
54,2.21195927699,1.08405000129,50.1706348102,2.21189242028,0.190983789517,66.1571361751,3.32373641203,0.180514967852,0.983513739913,2.97013015937,1.0,613.850826211,0.930557220478
55,2.22135498079,1.09782356507,49.7182622591,2.20923714798,0.191212518355,66.2408914658,3.31141804092,0.181334074994,0.985657296173,2.98110846289,1.0,613.868912321,0.848184571782
56,2.23051864666,1.11150021197,49.2762079773,2.20668361092,0.190256798579,66.3298907899,3.29950595298,0.180052732252,0.987597796538,2.99270361363,1.0,613.840547052,0.801820581872
57,2.23946030537,1.12508117771,48.844064961,2.20422736084,0.190329053634,66.4236595395,3.28798388662,0.18063879558,0.989334871912,3.00311090727,1.0,613.853570919,0.868226650471
58,2.24818939472,1.13856768552,48.421448007,2.20186422026,0.190331140183,66.5217627099,3.27683637778,0.181123454698,0.990892206325,3.01326636637,1.0,613.864277441,0.929585465874
59,2.25671480305,1.1519609442,48.0079922878,2.19959026223,0.190263825192,66.6238013694,3.26604871845,0.1815045712,0.992283419062,3.02317386136,1.0,613.872656331,0.98681086221
60,2.26504490936,1.16526214715,47.6033520165,2.19740179181,0.190127863437,66.7294094723,3.25560691661,0.181780202553,0.993521147966,3.03283687945,1.0,613.878694154,1.04055770703
61,2.27318761987,1.17847247149,47.2071992167,2.19529532912,0.188744345391,66.8382509759,3.24549765828,0.179795543617,0.994620126555,3.04287786449,1.0,613.834804752,1.09450021092
62,2.28115040128,1.19159307698,46.8192225959,2.19326759396,0.188460171955,66.9500172274,3.23570827176,0.179823780396,0.995584624094,3.05201048585,1.0,613.835436005,1.14230817314
63,2.28894031154,1.20462510576,46.4391264837,2.19131549162,0.188109631764,67.0644246012,3.22622669325,0.179743062042,0.996428446036,3.06090751985,1.0,613.83363096,1.18781613494
64,2.2965640278,1.21756968156,46.0666298682,2.18943609995,0.187693430038,67.1812123517,3.21704143474,0.17955240307,0.997160947478,3.0695712636,1.0,613.829360929,1.23125325142
65,2.30402787224,1.23042790958,45.7014654883,2.18762665749,0.187212260177,67.3001406687,3.20814155323,0.179251053893,0.997790810359,3.07800380064,1.0,613.822593275,1.27280576595
66,2.31133783583,1.24320087625,45.3433789942,2.18588455254,0.186666803916,67.420988911,3.19951662179,0.178838506313,0.998326092145,3.0862070252,1.0,613.813291238,1.31262691898
67,2.31849960001,1.25588964892,44.9921281774,2.18420731315,0.187314878249,67.5435539981,3.19115670226,0.18063826383,0.998773632676,3.09386205321,1.0,613.853559141,1.34935233752
68,2.32551855698,1.2684952761,44.6474822393,2.18259259788,0.186655466748,67.6676489527,3.18305231916,0.180026533632,0.999141836796,3.10166048904,1.0,613.839962863,1.38631066309
69,2.33239982805,1.28101878714,44.3092211283,2.18103818728,0.185933663506,67.7931015682,3.17519443547,0.179302040977,0.999436285648,3.10923412651,1.0,613.823739939,1.42185487085
70,2.33914828088,1.29346119247,43.97713491,2.17954197608,0.185150106351,67.9197531993,3.16757442936,0.178465215695,0.999662966279,3.11658431327,1.0,613.804837175,1.45606255997
71,2.34576854538,1.30582348384,43.6510231832,2.17810196586,0.184305422378,68.0474576594,3.16018407237,0.177516743738,0.999827437314,3.12371229838,1.0,613.783196277,1.48899973455
72,2.35226502818,1.31810663419,43.3306945437,2.17671625845,0.184719654182,68.1760802109,3.15301550895,0.178916762905,0.999934828527,3.13054029716,1.0,613.815059059,1.52036676429
73,2.35864192633,1.33031159803,43.0159660747,2.17538304967,0.183766773056,68.3054966478,3.14606123691,0.177764249147,0.999990027282,3.13727496088,1.0,613.788865849,1.5511388261
74,2.36490323992,1.34243931173,42.7066628719,2.17410062358,0.18275450667,68.4355924568,3.1393140891,0.176501862058,0.999997407331,3.14379049894,1.0,613.759781695,1.56080902561
75,2.37105278364,1.35449069352,42.4026176092,2.17286734719,0.183039288689,68.5662620472,3.13276721613,0.177668449812,0.999961091668,3.15015129504,1.0,613.786673267,1.53197187514
76,2.3770941977,1.36646664394,42.1036701225,2.17168166551,0.181921991423,68.6974080501,3.12641407006,0.176202706918,0.999884928882,3.15627852449,1.0,613.752828171,1.50426973278
77,2.38303095798,1.37836804617,41.8096670218,2.17054209694,0.180746966817,68.8289406765,3.12024838887,0.174630833005,0.999772499262,3.16218926007,1.0,613.715898954,1.47760402504
78,2.3888663853,1.39019576612,41.5204613369,2.169447229,0.180906361765,68.9607771259,3.11426418204,0.175557347443,0.99962694727,3.16808825339,1.0,613.737746541,1.45103921844
79,2.39460365426,1.40195065288,41.2359121744,2.16839571441,0.179629318709,69.0928410481,3.10845571678,0.173786263397,0.999451642706,3.17361505021,1.0,613.695780012,1.4261746954
80,2.40024580135,1.413633539,40.9558844031,2.16738626733,0.179711176458,69.2250620472,3.10281750506,0.174565371569,0.999248991509,3.17922422296,1.0,613.714346546,1.40095829098
81,2.40579573261,1.42524524086,40.6802483549,2.16641765994,0.17976066685,69.3573752284,3.09734429133,0.17529144321,0.999021837509,3.184712125,1.0,613.731500121,1.37628963326
82,2.41125623066,1.43678655885,40.4088795494,2.16548871922,0.178339879025,69.4897207781,3.09203104105,0.173228754379,0.998773144289,3.18969075036,1.0,613.682391435,1.35391035852
83,2.41662996142,1.4482582778,40.1416584301,2.16459832397,0.178314088113,69.6220435815,3.08687292976,0.173804490985,0.998504257827,3.19489118095,1.0,613.696216292,1.33051417753
84,2.42191948031,1.45966116735,39.8784701167,2.16374540195,0.176795802921,69.7542928708,3.08186533269,0.171551864961,0.998218521382,3.19949207837,1.0,613.641594635,1.30981313462
85,2.42712723799,1.47099598211,39.6192041783,2.16292892733,0.176696219948,69.8864218978,3.07700381516,0.171977219454,0.997916437621,3.20440672796,1.0,613.65201859,1.28765714507
86,2.4322555859,1.4822634621,39.363754412,2.16214791816,0.176565923795,70.018387637,3.07228412327,0.172346343194,0.997600566001,3.20920157238,1.0,613.661022683,1.26600487511
87,2.43730678131,1.49346433304,39.1120186402,2.16140143412,0.176405202389,70.1501505091,3.06770217524,0.172658598104,0.997272627035,3.21387682285,1.0,613.668609403,1.24485086775
88,2.44228299219,1.50459930671,38.8638985148,2.16068857438,0.174708233713,70.2816741283,3.06325405319,0.170036655403,0.99693541928,3.21777457304,1.0,613.604036888,1.22723478351
89,2.44718630156,1.51566908115,38.6192993396,2.1600084755,0.174476426667,70.4129250663,3.05893599536,0.170198758441,0.996588043237,3.22216713045,1.0,613.608087017,1.20728610582
90,2.45201871186,1.52667434106,38.3781298956,2.15936030964,0.174215095892,70.5438726374,3.05474438874,0.17030328868,0.996233051586,3.22644101601,1.0,613.610694593,1.18782709712
91,2.45678214884,1.53761575806,38.1403022803,2.1587432827,0.173924511093,70.6744886986,3.05067576216,0.170349899177,0.995871727864,3.23059647887,1.0,613.611856287,1.16885602766
92,2.46147846536,1.54849399105,37.9057317535,2.15815663266,0.173604937864,70.8047474659,3.04672677959,0.170338307623,0.995505263982,3.23463378025,1.0,613.611567445,1.15037192621
93,2.4661094448,1.55930968641,37.674336596,2.15759962805,0.171695767214,70.9346253427,3.04289423404,0.167279314613,0.995136664279,3.23767678191,1.0,613.533938411,1.13653692474
94,2.4706768045,1.57006347832,37.4460379701,2.15707156642,0.171308233319,71.0641007632,3.03917504156,0.167121867052,0.994763195995,3.24143572441,1.0,613.529865644,1.11925685586
95,2.47518219878,1.58075598908,37.2207597926,2.15657177297,0.170892545322,71.1931540459,3.03556623565,0.166906828799,0.994387674236,3.24507764753,1.0,613.524290695,1.10246685837
96,2.47962722196,1.59138782938,36.9984286106,2.15609959924,0.170448952659,71.3217672601,3.032064962,0.166634224975,0.994010986147,3.24860287767,1.0,613.51720258,1.08616846788
97,2.48401341107,1.6019595985,36.7789734886,2.15565442185,0.16997770111,71.4499240989,3.02866847341,0.166304148246,0.993633955035,3.25201175848,1.0,613.50858887,1.0703637221
98,2.48834224851,1.61247188462,36.5623258974,2.15523564136,0.169479032894,71.5776097651,3.02537412506,0.16591675907,0.993257344898,3.25530465162,1.0,613.498435659,1.05505511385
99,2.49261516453,1.62292526511,36.3484196106,2.15484268115,0.16895318674,71.7048108629,3.02217936998,0.165472285702,0.992881864696,3.25848193747,1.0,613.486727537,1.04024554333
100,2.49683353957,1.63332030675,36.1371906058,2.15447498639,0.168400397982,71.8315152994,3.01908175474,0.164971024031,0.992508172362,3.26154401576,1.0,613.473447557,1.02593826886
101,2.50099870646,1.64365756596,35.9285769727,2.15413202303,0.167820898621,71.957712191,3.01607891539,0.164413337165,0.992136878573,3.26449130607,1.0,613.458577196,1.01213685632
102,2.50511195253,1.65393758904,35.7225188238,2.15381327693,0.167214917413,72.0833917787,3.0131685736,0.163799654857,0.991768550285,3.26732424836,1.0,613.442096312,0.998845126277
103,2.50917452158,1.66416091245,35.51895821,2.15351825292,0.166582679934,72.2085453484,3.01034853298,0.16313047271,0.991403714056,3.27004330339,1.0,613.423983101,0.986067099384
104,2.51318761579,1.67432806303,35.3178390408,2.15324647398,0.165924408664,72.3331651569,3.00761667557,0.162406351196,0.991042859158,3.27264895315,1.0,613.404214046,0.973806939426
105,2.51715239746,1.68443955814,35.1191070095,2.15299748049,0.165240323043,72.4572443632,3.00497095857,0.161627914452,0.990686440492,3.27514170114,1.0,613.382763857,0.962068894518
106,2.52106999073,1.69449590598,34.9227095201,2.15277082945,0.164530639549,72.5807769647,3.00240941115,0.160795848923,0.990334881325,3.27752207269,1.0,613.359605418,0.950857235983
107,2.52494148318,1.70449760576,34.728595619,2.15256609378,0.165501775563,72.7037577379,2.99993013146,0.163195963826,0.989984644232,3.28124011714,1.0,613.425762375,0.93266015548
108,2.52876792733,1.71444514792,34.5367159292,2.15238286163,0.164751491728,72.8261821838,2.99753128379,0.16227029378,0.989643529507,3.28343588695,1.0,613.400479816,0.9222710854
109,2.53255034213,1.72433901429,34.3470225893,2.15222073581,0.163976188588,72.9480464755,2.99521109584,0.161292017732,0.98930831481,3.2855206307,1.0,613.373443886,0.912421978328
110,2.53628971428,1.73417967833,34.1594691935,2.15207933309,0.163176071884,73.0693474112,2.99296785615,0.160262048346,0.988979315742,3.28749495715,1.0,613.344621341,0.9031169778
111,2.53998699955,1.74396760532,33.9740107352,2.15195828372,0.162351344695,73.1900823693,2.99079991162,0.159181353753,0.988656827474,3.28935949783,1.0,613.313976829,0.894359943069
112,2.54364312406,1.75370325252,33.7906035534,2.15185723081,0.161502207501,73.3102492675,2.98870566521,0.158050955202,0.988341126547,3.29111490714,1.0,613.281472796,0.886154380074
113,2.54725898541,1.76338706936,33.6092052819,2.15177582986,0.162394010454,73.4298465235,2.98668357364,0.160274663869,0.988027669395,3.29443679634,1.0,613.344976622,0.869491328499
114,2.55083545383,1.77301949765,33.4297747998,2.15171374827,0.161506286641,73.5488730198,2.98473214535,0.159051598752,0.987725537975,3.29601224175,1.0,613.310269351,0.862164375252
115,2.55437337325,1.78260097169,33.2522721849,2.15167066481,0.160594688216,73.6673280693,2.98284993838,0.157780752013,0.98743083598,3.29748026161,1.0,613.273634014,0.855400550947
