,theta i [rad],r orb [AU],v orb [km s-1],ang orb [rad],r L1 [AU],v i [km s-1],ang i [rad],a p [AU],e p,theta p i [rad],flag impact,v imp [km s-1],ang imp [rad]
0,0.0,0.432,89.1813338211,1.57079632679,0.204972976483,8.91813338211,1.57079632679,0.103436639209,0.981628348034,3.14159265359,1.0,610.859887751,0.871523862191
1,0.0709152048067,0.432469378294,89.126321128,1.601416812,0.205195684502,9.23372441954,1.87078641854,0.103619337928,0.982021219944,3.14726076185,1.0,610.87226832,0.879736811546
2,0.141523959916,0.433873133084,88.9623052288,1.63189310889,0.205427422885,10.1153317544,2.13767272756,0.103944816731,0.983201668888,3.15250680365,1.0,610.894215927,0.905612900845
3,0.211528537096,0.436198294193,88.6922958366,1.66208518779,0.206091690069,11.4163693196,2.35777955674,0.104629439881,0.985028995221,3.15695848532,1.0,610.939933052,0.94615219635
4,0.280648030405,0.439423796965,88.3211259892,1.69186103813,0.207175787684,12.9885904773,2.53433954893,0.105668951554,0.98734771327,3.1602875437,1.0,611.008209611,0.999722383156
5,0.348625288559,0.443521261062,87.8551982166,1.72109996808,0.208663659892,14.7187425041,2.67649624067,0.10705882524,0.989962776809,3.16222291877,1.0,611.0974154,1.06460582706
6,0.415232289555,0.448455989164,87.3021671173,1.74969515675,0.210087493969,16.5291253115,2.79301921145,0.108554676925,0.992670960529,3.16251244056,1.0,611.190856987,1.14020057438
7,0.480273743841,0.45418810978,86.6705883944,1.77755535723,0.211863526244,18.3679187214,2.89063006393,0.110377356769,0.995220899803,3.16106444294,1.0,611.301273013,1.22383715473
8,0.543588905543,0.460673786044,85.9695638928,1.80460574143,0.21350547199,20.2004708995,2.97412140984,0.112263932916,0.997402501142,3.15777246673,1.0,611.411763753,1.31510509996
9,0.605051725013,0.467866417674,85.2084080777,1.83078795206,0.215902324465,22.0034133735,3.04685044867,0.114707360723,0.999007387122,3.15269776354,1.0,611.549437654,1.41206489918
10,0.664569601416,0.475717776239,84.3963548153,1.85605948652,0.218096841973,23.7609640184,3.11118104872,0.117178587253,0.999880594865,3.14581064648,1.0,611.682808349,1.51535797454
11,0.722081049797,0.484179028583,83.5423160529,1.88039256478,0.220037319937,25.462605399,3.1688031581,0.119635581442,0.999890553607,3.13721968033,1.0,611.809921487,1.51717938343
12,0.777552621996,0.493201620457,82.6546969693,1.90377264425,0.222656591077,27.1015819409,3.22094878639,0.122628604118,0.998947989805,3.12701268116,1.0,611.957851117,1.40185755656
13,0.830975396257,0.502738007125,81.7412665097,1.92619673284,0.224948841713,28.6738850437,3.26853532736,0.125559625924,0.997002930695,3.11533560236,1.0,612.095849217,1.27974558075
14,0.882361306453,0.512742230335,80.8090781565,1.94767162992,0.227372183936,30.1775374368,3.31226070198,0.128702481585,0.994036384563,3.10229161259,1.0,612.236805485,1.14897522009
15,0.931739524304,0.523170350278,79.8644333903,1.96821219702,0.229901689202,31.6120693807,3.35266707603,0.132044819484,0.990056964993,3.08799345047,1.0,612.379313214,1.00649985519
16,0.979153048467,0.533980747226,78.912879315,1.98783973127,0.232514142953,32.9781243665,3.39018407143,0.135574689542,0.985096035219,3.07255030533,1.0,612.52215455,0.84664550449
17,1.02465560102,0.545134311022,77.9592319802,2.00658048909,0.23464239994,34.2771568031,3.42515849082,0.138897924081,0.979242866746,3.0562679969,1.0,612.649970731,0.910862524441
18,1.06830888305,0.556594536938,77.0076177688,2.02446438403,0.236789471504,35.5111978664,3.45787507016,0.142344908443,0.972545717815,3.03913073117,1.0,612.776214743,1.16312171736
19,1.11018021109,0.56832754713,76.0615262493,2.04152386857,0.239505406609,36.6826736571,3.48857119075,0.14632503028,0.96501534287,3.02094231897,0.0,0.0,0.0
20,1.15034052529,0.580302054119,75.1238692753,2.05779299461,0.241647305713,37.794264251,3.51744746837,0.149997311908,0.956850999596,3.00233546765,0.0,0.0,0.0
21,1.18886274634,0.592489281363,74.1970422852,2.07330664134,0.243163773066,38.848795174,3.54467549314,0.153278135601,0.948181353527,2.98355336522,0.0,0.0,0.0
22,1.2258204485,0.604862853732,73.2829848548,2.0880998942,0.245214674404,39.849154719,3.57040357477,0.157070282154,0.938915748632,2.96392571485,0.0,0.0,0.0
23,1.26128680839,0.617398667542,72.3832385493,2.10220755543,0.247206677696,40.7982317912,3.59476107174,0.160911477467,0.929218080281,2.94387521826,0.0,0.0,0.0
24,1.29533379361,0.630074749246,71.4990007421,2.11566376861,0.248497953197,41.6988701153,3.61786170465,0.164235312634,0.919313496494,2.92406704627,0.0,0.0,0.0
25,1.32803155148,0.642871108484,70.6311737528,2.1285017381,0.250327192468,42.5538353069,3.63980612905,0.168100155582,0.909004943954,2.90344593184,0.0,0.0,0.0
26,1.35944796456,0.655769590566,69.7804089986,2.14075352731,0.251411168471,43.3657920385,3.66068396265,0.171357058875,0.898669714546,2.88334437345,0.0,0.0,0.0
27,1.38964834211,0.668753731822,68.9471461704,2.152449921,0.252372533586,44.1372890408,3.68057540465,0.174538773873,0.888227979129,2.86323705017,0.0,0.0,0.0
28,1.418695221,0.681808620278,68.131647633,2.16362033894,0.25388669763,44.8707501217,3.69955254645,0.178299158211,0.877528470759,2.84228934059,0.0,0.0,0.0
29,1.44664825327,0.694920763279,67.3340283694,2.17429279,0.254595599188,45.5684697528,3.71768044548,0.181307050497,0.867028378088,2.82228799035,0.0,0.0,0.0
30,1.47356416152,0.708077963056,66.5542818518,2.18449385778,0.255163234203,46.2326120687,3.73501801501,0.184185096037,0.85658020008,2.80247747233,0.0,0.0,0.0
31,1.4994967462,0.721269200727,65.7923022518,2.1942487102,0.256306877438,46.8652123719,3.75161876911,0.187688495204,0.845970569058,2.78174963809,0.0,0.0,0.0
32,1.52449693213,0.734484528906,65.0479033971,2.20358112703,0.256591696628,47.4681804309,3.7675314522,0.190287182266,0.835728884481,2.76241524231,0.0,0.0,0.0
33,1.54861284366,0.747714972807,64.3208348708,2.2125135404,0.256722963018,48.0433050189,3.78280057559,0.192703292978,0.825645289773,2.7434573773,0.0,0.0,0.0
34,1.57188990039,0.76095243957,63.610795618,2.22106708449,0.257459388379,48.592259271,3.78625994439,0.195799764388,0.821396438007,2.72940271074,0.0,0.0,0.0
35,1.59437092667,0.774189635486,62.9174453925,2.22926165123,0.257288251689,49.1166065357,3.78854823127,0.197836139889,0.818224200218,2.71786401154,0.0,0.0,0.0
36,1.61609626945,0.78741999031,62.2404143586,2.2371159495,0.257744085407,49.6178064671,3.79068710038,0.200594852027,0.815032836315,2.70539671921,0.0,0.0,0.0
37,1.63710392164,0.800637588978,61.5793110751,2.24464756638,0.257261932525,50.0972212084,3.79268011398,0.202190036622,0.812373595177,2.69513042924,0.0,0.0,0.0
38,1.65742964621,0.813837109167,60.9337291474,2.25187302856,0.257429961021,50.5561214922,3.79453117264,0.204552760842,0.809678344496,2.68385188728,0.0,0.0,0.0
39,1.67710710019,0.827013765,60.3032527092,2.25880786316,0.257458744256,50.9956925991,3.79624440229,0.206716653335,0.807217402692,2.6731708395,0.0,0.0,0.0
40,1.69616795573,0.840163255808,59.6874609409,2.26546665701,0.256506303962,51.417040086,3.79782406516,0.207565567679,0.805251936005,2.6649781985,0.0,0.0,0.0
41,1.7146420184,0.853281720262,59.0859317373,2.27186311418,0.256240761511,51.8211952695,3.79927449012,0.209256949421,0.80322443644,2.655626826,0.0,0.0,0.0
42,1.73255734031,0.866365694469,58.4982447018,2.27801011094,0.255833718291,52.209120407,3.80060001825,0.210714711794,0.801398880804,2.6469315967,0.0,0.0,0.0
43,1.74994032861,0.87941207439,57.923983541,2.28391974823,0.255284791102,52.5817135876,3.80180496086,0.21192897493,0.799764502582,2.63890719008,0.0,0.0,0.0
44,1.76681584827,0.892418081547,57.3627379841,2.28960340135,0.25548706315,52.9398133108,3.80289356727,0.214143072114,0.79805149148,2.62941954129,0.0,0.0,0.0
45,1.78320732016,0.905381232677,56.8141052636,2.2950717671,0.254666797978,53.284202783,3.80387000062,0.214879883599,0.796770811368,2.62270400948,0.0,0.0,0.0
46,1.79913681261,0.918299311529,56.2776912897,2.3003349078,0.253704319132,53.6156139003,3.80473831992,0.215348723237,0.795650556318,2.61669092134,0.0,0.0,0.0
47,1.81462512842,0.931170344107,55.7531115077,2.305402293,0.253531870325,53.9347309705,3.8055024672,0.216904924786,0.79443278637,2.6090376731,0.0,0.0,0.0
48,1.82969188602,0.94399257589,55.2399915382,2.31028283829,0.252298320975,54.2421941574,3.8061662586,0.216853826035,0.793607751605,2.60438140632,0.0,0.0,0.0
49,1.84435559541,0.956764451138,54.737967626,2.31498494162,0.251880936504,54.5386026696,3.80673337875,0.217950383068,0.792674546718,2.59796201709,0.0,0.0,0.0
50,1.85863372987,0.969484594753,54.2466869054,2.31951651743,0.251347862849,54.8245177267,3.80720737755,0.218827842909,0.791873250395,2.59213257858,0.0,0.0,0.0
51,1.87254279205,0.982151795098,53.7658075665,2.32388502813,0.250699412134,55.1004652839,3.80759166902,0.219481162734,0.791195625941,2.58689589919,0.0,0.0,0.0
52,1.88609837656,0.99476498924,53.2949988822,2.32809751381,0.249935953251,55.3669385684,3.80788953169,0.219906126023,0.790633978935,2.58225358306,0.0,0.0,0.0
53,1.89931522751,1.00732324882,52.8339411803,2.33216061958,0.249057905389,55.6244004059,3.80810411007,0.220099374979,0.790181196201,2.57820612378,0.0,0.0,0.0
54,1.91220729293,1.01982576802,52.3823257166,2.3360806213,0.248065732412,55.8732853851,3.80823841716,0.220058436587,0.789830776166,2.57475299301,0.0,0.0,0.0
55,1.92478777475,1.03227185187,51.9398545215,2.33986344925,0.247993242764,56.1140018411,3.80829533759,0.22142387389,0.789360471038,2.56903367535,0.0,0.0,0.0
56,1.93706917611,1.04466090648,51.5062401766,2.34351471046,0.246786765794,56.346933702,3.80827763121,0.220939299256,0.789198748611,2.5667043853,0.0,0.0,0.0
57,1.94906334463,1.05699242932,51.0812055846,2.34703970913,0.245467716445,56.572442179,3.80818793709,0.220216694099,0.789122788627,2.56496349769,0.0,0.0,0.0
58,1.96078151352,1.06926600124,50.6644836885,2.35044346595,0.245107026456,56.7908673425,3.80802877772,0.220991209896,0.788919345028,2.56077077643,0.0,0.0,0.0
59,1.97223433909,1.08148127841,50.2558171993,2.35373073582,0.24465943352,57.0025295634,3.8078025634,0.22158939943,0.788798189693,2.55704327219,0.0,0.0,0.0
60,1.98343193647,1.0936379858,49.8549582836,2.35548295586,0.24412540142,57.1373023746,3.80451570113,0.221562569075,0.790684361119,2.55801539594,0.0,0.0,0.0
61,1.99438391214,1.10573591048,49.461668271,2.35241537628,0.245719096416,57.0359635684,3.79120889437,0.223548540103,0.798572400328,2.56716806162,0.0,0.0,0.0
62,2.00509939478,1.11777489611,49.075717337,2.34945145315,0.246156638988,56.9440183626,3.7782222692,0.223681419835,0.806319595743,2.57911257514,0.0,0.0,0.0
63,2.01558706394,1.12975483775,48.69688419,2.34658733973,0.247663978658,56.8609727252,3.76554794378,0.225639672864,0.81357507333,2.58778998995,0.0,0.0,0.0
64,2.02585517643,1.14167567686,48.3249557714,2.34381938286,0.249134437213,56.7863596833,3.7531782197,0.227596677079,0.820539578766,2.59627308023,0.0,0.0,0.0
65,2.0359115915,1.15353739734,47.9597269379,2.34114411125,0.249413496554,56.7197377769,3.74110558044,0.227620509103,0.827376047618,2.60741920788,0.0,0.0,0.0
66,2.04576379372,1.16534002117,47.6010001727,2.33855822473,0.250798908699,56.6606896044,3.72932269046,0.22954068556,0.83378425138,2.61548936283,0.0,0.0,0.0
67,2.05541891482,1.17708360507,47.2485852849,2.33605858416,0.252148044775,56.6088204468,3.71782239337,0.231455819297,0.839936560503,2.62338941141,0.0,0.0,0.0
68,2.06488375399,1.18876823726,46.90229912,2.33364220198,0.252271142701,56.5637569729,3.70659771005,0.23135531084,0.845971852945,2.63383709406,0.0,0.0,0.0
69,2.07416479654,1.20039403424,46.5619652886,2.33130623349,0.253536683173,56.5251460191,3.69564183687,0.233225063736,0.851634653971,2.64137329022,0.0,0.0,0.0
70,2.08326823171,1.21196113818,46.2274138912,2.32904796861,0.253553436596,56.4926534389,3.68494814329,0.233028475917,0.857189127129,2.6513868942,0.0,0.0,0.0
71,2.09219996928,1.22346971456,45.8984812536,2.32686482422,0.254736442357,56.4659630197,3.67451016935,0.23484724209,0.862402499509,2.65858740622,0.0,0.0,0.0
72,2.10096565481,1.2349199496,45.5750096812,2.32475433703,0.25464816308,56.444775463,3.66432162337,0.234548812355,0.867515543453,2.66819955274,0.0,0.0,0.0
73,2.10957068421,1.24631204835,45.2568472109,2.32271415688,0.255749724943,56.4288074244,3.65437637905,0.236311229138,0.872316180776,2.67508870232,0.0,0.0,0.0
74,2.1180202174,1.25764623287,44.9438473744,2.32074204047,0.25555774834,56.417790609,3.64466847258,0.235905636544,0.877023904009,2.68432773621,0.0,0.0,0.0
75,2.12631919081,1.26892274025,44.6358689786,2.31883584549,0.256578977834,56.4114709213,3.63519209989,0.237606577475,0.881445404772,2.69092665218,0.0,0.0,0.0
76,2.13447232939,1.28014182116,44.3327758852,2.31699352518,0.257566077464,56.4096076634,3.62594161347,0.239291614337,0.885692420855,2.6974037272,0.0,0.0,0.0
77,2.14248415783,1.2913037385,44.0344368006,2.31521312312,0.257226675984,56.4119727823,3.61691151918,0.238723514916,0.889854041725,2.7061444922,0.0,0.0,0.0
78,2.15035901089,1.3024087658,43.7407250823,2.31349276847,0.258135076057,56.4183501596,3.6080964733,0.240339916178,0.893766823691,2.71235711344,0.0,0.0,0.0
79,2.15810104337,1.31345718619,43.4515185434,2.31183067141,0.25769530917,56.4285349443,3.59949127909,0.239652952523,0.897600622393,2.72078021859,0.0,0.0,0.0
80,2.16571423929,1.32444929124,43.1666992718,2.31022511891,0.258526143308,56.4423329245,3.59109088365,0.241196141496,0.901206169768,2.72674372119,0.0,0.0,0.0
81,2.17320242062,1.33538537997,42.8861534518,2.30867447075,0.257987371091,56.4595599354,3.58289037451,0.2403865005,0.904738794193,2.73486740168,0.0,0.0,0.0
82,2.18056925539,1.34626575782,42.6097712013,2.30717715576,0.258741772667,56.4800413033,3.57488497646,0.241852152616,0.908061851531,2.74059535936,0.0,0.0,0.0
83,2.18781826542,1.35709073584,42.3374464089,2.30573166834,0.258105350567,56.5036113205,3.56707004822,0.240916490129,0.91131773883,2.74843585684,0.0,0.0,0.0
84,2.19495283359,1.36786063004,42.0690765782,2.30433656509,0.258784448939,56.530112753,3.55944107901,0.242300545439,0.914380990324,2.75394034537,0.0,0.0,0.0
85,2.20197621056,1.3785757604,41.8045626862,2.30299046177,0.259431680056,56.5593963747,3.55199368545,0.243659205478,0.917324526813,2.75934946302,0.0,0.0,0.0
86,2.20889152128,1.38923645045,41.5438090396,2.30169203031,0.258656641859,56.5913205309,3.54472360821,0.242534677262,0.920206800693,2.76680401848,0.0,0.0,0.0
87,2.21570177099,1.39984302653,41.2867231424,2.30043999608,0.259230195543,56.6257507252,3.53762670876,0.243806048042,0.922920884608,2.7720047666,0.0,0.0,0.0
88,2.222409851,1.41039581738,41.0332155652,2.29923313527,0.258360800835,56.6625592326,3.53069896617,0.242548696039,0.925578922797,2.77920917034,0.0,0.0,0.0
89,2.22901854398,1.42089515348,40.7831998271,2.29807027249,0.258861785178,56.7016247325,3.52393647404,0.24372939407,0.928081843835,2.78421082004,0.0,0.0,0.0
90,2.23553052913,1.43134136667,40.5365922756,2.29695027837,0.259332124959,56.7428319648,3.51733543729,0.244880155018,0.930487368214,2.78912677174,0.0,0.0,0.0
91,2.24194838695,1.44173478973,40.2933119763,2.29587206747,0.258328861703,56.7860714052,3.51089216913,0.243424530711,0.932842266845,2.79598735536,0.0,0.0,0.0
92,2.24827460384,1.45207575604,40.0532806036,2.29483459615,0.258728218281,56.831238959,3.50460308801,0.244479891394,0.935061120867,2.80071595579,0.0,0.0,0.0
93,2.25451157628,1.46236459913,39.8164223425,2.29383686066,0.257633808755,56.8782356723,3.49846471475,0.242887609692,0.937234149557,2.80735235307,0.0,0.0,0.0
94,2.260661615,1.4726016524,39.5826637882,2.29287789528,0.257963257935,56.9269674601,3.49247366953,0.243844963936,0.939281104432,2.81190094763,0.0,0.0,0.0
95,2.26672694879,1.48278724887,39.3519338539,2.29195677061,0.258263250067,56.9773448496,3.48662666915,0.24476844219,0.941248684179,2.81637143345,0.0,0.0,0.0
96,2.27270972815,1.49292172092,39.12416368,2.29107259191,0.257039581107,57.0292827385,3.48092052412,0.242972772499,0.943175480457,2.8226976185,0.0,0.0,0.0
97,2.27861202871,1.50300539997,38.8992865516,2.29022449751,0.257271200129,57.0827001654,3.47535213607,0.243794632763,0.94499095627,2.82699753777,0.0,0.0,0.0
98,2.28443585454,1.51303861631,38.6772378147,2.2894116574,0.257474044358,57.1375200958,3.46991849503,0.244580575674,0.946736139904,2.83122309161,0.0,0.0,0.0
99,2.29018314119,1.52302169891,38.4579547994,2.28863327179,0.257648320984,57.1936692172,3.46461667682,0.245329938482,0.948413765831,2.83537528984,0.0,0.0,0.0
100,2.29585575873,1.53295497527,38.2413767435,2.28788856979,0.256259746177,57.2510777483,3.45944384053,0.243261571886,0.950055943291,2.84131942111,0.0,0.0,0.0
101,2.30145551443,1.54283877116,38.0274447239,2.28717680818,0.256367609189,57.3096792563,3.45439722609,0.243905294197,0.951604173802,2.84531182251,0.0,0.0,0.0
102,2.30698415548,1.55267341057,37.8161015862,2.28649727019,0.256447565883,57.3694104864,3.44947415183,0.244510723962,0.953092526945,2.84923411348,0.0,0.0,0.0
103,2.31244337148,1.56245921551,37.60729188,2.28584926441,0.256499816741,57.4302111995,3.44467201215,0.245077285499,0.954523316033,2.85308717436,0.0,0.0,0.0
104,2.31783479681,1.57219650594,37.4009617964,2.28523212366,0.254950790346,57.4920240194,3.43998827523,0.242735259793,0.955923881057,2.85867456637,0.0,0.0,0.0
105,2.32316001297,1.58188559966,37.1970591072,2.28464520403,0.254938525671,57.5547942885,3.43542048085,0.243193397061,0.957244478218,2.86237731889,0.0,0.0,0.0
106,2.32842055065,1.59152681218,36.9955331093,2.2840878839,0.25489919475,57.6184699302,3.4309662382,0.24361132333,0.95851400987,2.86601371867,0.0,0.0,0.0
107,2.33361789186,1.60112045664,36.7963345684,2.28355956299,0.254832991211,57.6830013203,3.42662322382,0.243988563014,0.959734434135,2.86958455131,0.0,0.0,0.0
108,2.33875347184,1.61066684377,36.5994156668,2.28305966153,0.254740107043,57.7483411648,3.42238917957,0.244324662214,0.960907630454,2.87309058472,0.0,0.0,0.0
109,2.34382868094,1.62016628182,36.4047299521,2.2825876194,0.252998944543,57.8144443839,3.4182619106,0.241642893092,0.962056221489,2.8782669618,0.0,0.0,0.0
110,2.3488448664,1.62961907646,36.2122322906,2.28214289534,0.252843806299,57.8812680024,3.41423928352,0.241868626105,0.963139095417,2.88163307993,0.0,0.0,0.0
111,2.35380333401,1.63902553075,36.0218788199,2.28172496621,0.252662599983,57.9487710466,3.41031922451,0.242052369375,0.964180021005,2.88493696045,0.0,0.0,0.0
112,2.35870534977,1.64838594512,35.8336269042,2.2813333263,0.252455510768,58.0169144456,3.40649971748,0.242193782896,0.965180589716,2.88817930934,0.0,0.0,0.0
113,2.36355214136,1.65770061729,35.6474350925,2.28096748657,0.252222722211,58.0856609388,3.4027788024,0.242292551553,0.966142329122,2.89136082144,0.0,0.0,0.0
114,2.36834489969,1.6669698423,35.4632630766,2.28062697407,0.251964416271,58.1549749881,3.39915457352,0.242348385703,0.967066705463,2.89448218144,0.0,0.0,0.0
115,2.37308478021,1.67619391241,35.2810716535,2.2803113313,0.251680773309,58.2248226938,3.39562517781,0.242361021698,0.967955126086,2.89754406491,0.0,0.0,0.0
116,2.3777729043,1.68537311713,35.1008226865,2.28002011562,0.251371972106,58.2951717162,3.39218881333,0.242330222419,0.968808941795,2.90054713921,0.0,0.0,0.0
117,2.38241036051,1.69450774319,34.9224790695,2.27975289866,0.25103818987,58.3659912007,3.38884372767,0.242255777749,0.969629449094,2.90349206437,0.0,0.0,0.0
118,2.38699820581,1.70359807452,34.7460046926,2.27950926583,0.24897429888,58.4372517064,3.3855882165,0.238975420829,0.970433111107,2.90801317353,0.0,0.0,0.0
119,2.39153746675,1.71264439225,34.5713644079,2.27928881575,0.248582024609,58.5089251392,3.38242062209,0.238791077962,0.971190068627,2.91083424354,0.0,0.0,0.0
120,2.39602914053,1.7216469747,34.398523999,2.27909115981,0.248165335406,58.5809846879,3.37933933195,0.238563171251,0.971917357777,2.91359943484,0.0,0.0,0.0
121,2.4004741961,1.73060609738,34.2274501489,2.27891592168,0.247724402048,58.6534047631,3.37634277743,0.238291619964,0.972616076137,2.91630938485,0.0,0.0,0.0
122,2.40487357518,1.73952203298,34.0581104113,2.27876273684,0.247259393805,58.7261609404,3.37342943242,0.237976371819,0.973287277032,2.91896472777,0.0,0.0,0.0
