,theta i [rad],r orb [AU],v orb [km s-1],ang orb [rad],r L1 [AU],v i [km s-1],ang i [rad],a p [AU],e p,theta p i [rad],flag impact,v imp [km s-1],ang imp [rad]
0,0.0,0.25245,119.922065254,1.57079632679,0.119781084591,11.9922065254,1.57079632679,0.0604775643402,0.980587113545,3.14159265359,1.0,605.851534342,1.03563989118
1,0.162634775819,0.253999493762,119.528047709,1.64596782172,0.120262026088,14.4007650852,2.24380932775,0.0609880870805,0.982910139493,3.15553093687,1.0,605.952888036,1.06933500105
2,0.321400090627,0.258570932778,118.385775256,1.71927263947,0.121391162175,19.7607881987,2.65997901026,0.0623612318993,0.988781359857,3.16377298266,1.0,606.21718332,1.16554722147
3,0.472998989868,0.265948760132,116.603181568,1.789122469,0.123523752026,25.9369667902,2.91189844458,0.0647958343484,0.995362081634,3.16245238118,1.0,606.657988309,1.30919291248
4,0.61507975397,0.275818949385,114.328244567,1.8543882111,0.126175438928,32.042111947,3.08439522028,0.068055396321,0.99955763728,3.14992844562,1.0,607.198342627,1.48883296867
5,0.746328484007,0.287818182966,111.717503262,1.91444421568,0.128783514988,37.740206852,3.214371611,0.0718143141867,0.999019495782,3.12658592561,1.0,607.760068159,1.44538926711
6,0.866336356268,0.301577517645,108.912295198,1.96910288319,0.131921300265,42.9107326435,3.31830168849,0.0764206363223,0.992671562899,3.09385184208,1.0,608.372486305,1.21126845605
7,0.975358093117,0.316752743874,106.026604317,2.01849664303,0.134437604848,47.5314427327,3.40449569764,0.0810980857851,0.980651344926,3.05388754298,1.0,608.922645393,0.943930452648
8,1.07406283966,0.333040683953,103.144593505,2.06295665366,0.137016741774,51.6276311026,3.4776901526,0.0862591225188,0.963789794161,3.00824061836,1.0,609.459966553,0.967329749774
9,1.16333194693,0.350184608937,100.323821971,2.10291466862,0.138811921088,55.2459709981,3.54087725488,0.0911709292709,0.943469083121,2.95932409359,0.0,0.0,0.0
10,1.24411804011,0.367972857461,97.6006831426,2.13883491472,0.140338000822,58.4402755123,3.59610320103,0.0961309013533,0.92087943143,2.90811410233,0.0,0.0,0.0
11,1.3173580493,0.386234017658,94.9959552639,2.17117228315,0.14150315785,61.2639617047,3.64485008695,0.100967076218,0.897159555766,2.85586745272,0.0,0.0,0.0
12,1.38392591108,0.404830894609,92.5195156396,2.20034979109,0.141832650099,63.7664049532,3.68823583001,0.105055445895,0.873441461744,2.80483118395,0.0,0.0,0.0
13,1.44461129525,0.423654508588,90.1739723022,2.22674863178,0.141642252564,65.9914951129,3.72712815265,0.108549790516,0.850275245642,2.75552417839,0.0,0.0,0.0
14,1.5001139632,0.442618710434,87.9572984233,2.25070574515,0.140893648116,67.9773749571,3.76221472356,0.111264829554,0.828125018018,2.70907775053,0.0,0.0,0.0
15,1.55104672497,0.461655613932,85.8646668944,2.27251549295,0.140483795074,69.7567632021,3.79404916234,0.114249359999,0.806732378289,2.66282147874,0.0,0.0,0.0
16,1.59794259975,0.480711847324,83.8896892207,2.29243331272,0.139064793414,71.3575261299,3.82308277254,0.115694070176,0.786991134971,2.6225110743,0.0,0.0,0.0
17,1.64126359279,0.49974553601,82.0252304974,2.31068010614,0.138067840611,72.8033180399,3.84968728372,0.117475037335,0.768110776397,2.5824773473,0.0,0.0,0.0
18,1.68140966701,0.518723902637,80.2639313192,2.32744668284,0.136560952264,74.1142011146,3.87417162716,0.118269735939,0.750612647263,2.54725135401,0.0,0.0,0.0
19,1.71872718528,0.537621370731,78.5985313692,2.34289791775,0.135078047099,75.3072051462,3.89679458327,0.118833458352,0.734137218249,2.51437177794,0.0,0.0,0.0
20,1.7535165033,0.556418069709,77.0220611374,2.35521250555,0.133674015818,76.2455515529,3.91775619287,0.118900517423,0.718895462272,2.48680654748,0.0,0.0,0.0
21,1.78603862346,0.57509865868,75.5279470826,2.34198292098,0.137586170674,75.2488278413,3.88796778102,0.122622157552,0.738815926515,2.50760444874,0.0,0.0,0.0
22,1.81652092936,0.593651398843,74.1100611464,2.32969476695,0.141430468479,74.3878186268,3.84395648545,0.126498901171,0.767116671426,2.53879769746,0.0,0.0,0.0
23,1.84516208232,0.612067421968,72.7627350229,2.31825428387,0.144592509192,73.646375275,3.80210585418,0.129539546067,0.792889196436,2.5711171448,0.0,0.0,0.0
24,1.87213617625,0.630340150992,71.4807529138,2.3075794786,0.147647247692,73.0103388893,3.76229952619,0.13265071121,0.81612060809,2.60154056111,0.0,0.0,0.0
25,1.89759625437,0.648464840907,70.2593316004,2.2975984217,0.149945328711,72.4672958723,3.72442638926,0.134770526217,0.837203205453,2.63285014842,0.0,0.0,0.0
26,1.92167728047,0.666438212872,69.0940937307,2.28824781144,0.152767123016,72.0063598905,3.68838050149,0.137955880316,0.856021150792,2.66006275189,0.0,0.0,0.0
27,1.94449865025,0.684258162024,67.9810379933,2.27947176227,0.15479714693,71.6179790716,3.65406102653,0.140058589884,0.873062906536,2.68825883166,0.0,0.0,0.0
28,1.96616631697,0.701923524102,66.9165084706,2.27122078123,0.156685636697,71.2937665382,3.62137216311,0.142118897204,0.888357420752,2.71509491614,0.0,0.0,0.0
29,1.98677459166,0.71943388716,65.8971646919,2.26345090242,0.158433894275,71.0263521114,3.5902230616,0.144125417548,0.902070296528,2.74071504703,0.0,0.0,0.0
30,2.00640767273,0.736789440469,64.9199531095,2.2561229528,0.160043357165,70.8092528869,3.56052771909,0.146067390792,0.914351455021,2.76523846748,0.0,0.0,0.0
31,2.02514094805,0.753990852479,63.9820804817,2.24920192822,0.16151556324,70.6367605155,3.53220485365,0.14793458122,0.925336582947,2.78876465124,0.0,0.0,0.0
32,2.04304210567,0.771039171498,63.0809893776,2.24265646187,0.162852122575,70.5038431604,3.50517775942,0.149717207694,0.935148480232,2.81137711755,0.0,0.0,0.0
33,2.06017208514,0.787935745669,62.2143357729,2.23645836978,0.16405469508,70.4060602665,3.47937414363,0.151405898245,0.943898298107,2.83314637015,0.0,0.0,0.0
34,2.07658589363,0.804682157638,61.3799687335,2.23058226148,0.164319484956,70.3394885021,3.45472595041,0.15161446886,0.951723184451,2.85558536054,0.0,0.0,0.0
35,2.09233330852,0.82128017143,60.5759120497,2.22500520524,0.165242562353,70.3006574027,3.43116917464,0.153049374636,0.958634846398,2.87574898577,0.0,0.0,0.0
36,2.10745948385,0.837731689143,59.8003476879,2.21970643963,0.16603691672,70.2864934318,3.40864366923,0.154364390299,0.964759673684,2.89522634795,0.0,0.0,0.0
37,2.12200547536,0.85403871563,59.0516009055,2.21466712401,0.16670425918,70.294271334,3.38709294941,0.155551821061,0.970172351005,2.91405415903,1.0,613.207928352,1.52619295199
38,2.1360086963,0.87020332968,58.3281268792,2.20987012238,0.167246290983,70.3215718037,3.36646399657,0.156604383855,0.974940559651,2.93226387412,1.0,613.239190334,1.16766651168
39,2.14950331424,0.886227660522,57.6284986985,2.20529981532,0.166777583181,70.36624462,3.34670706423,0.155956554381,0.979139681026,2.95091208585,1.0,613.219999388,0.994374273437
40,2.16252059755,0.902113868725,56.9513965836,2.20094193612,0.167058129283,70.4263765141,3.32777548792,0.15668178849,0.982794444206,2.96788371016,1.0,613.241472673,0.869310186283
41,2.17508921836,0.917864130361,56.2955982175,2.19678342756,0.167218495682,70.5002631333,3.30962550086,0.157253796986,0.98597262344,2.98430848491,1.0,613.258268897,0.807196989722
42,2.18723551902,0.933480624717,55.6599700343,2.19281231626,0.167260297602,70.5863845559,3.29221605564,0.157667412797,0.988719877816,3.000203238,1.0,613.270337937,0.900326615083
43,2.198983746,0.948965523813,55.0434594123,2.18901760239,0.167185122814,70.6833838807,3.27550865404,0.15791804122,0.991077616089,3.01558237841,1.0,613.277620234,0.984385244298
44,2.21035625647,0.964320984282,54.4450876352,2.18538916247,0.166994530331,70.7900484859,3.25946718434,0.158001693669,0.993083394993,3.0304582227,1.0,613.280045691,1.06146533205
45,2.22137370072,0.979549140498,53.8639435681,2.18191766359,0.166690049474,70.905293602,3.24405776745,0.157915019401,0.994771279566,3.04484127495,1.0,613.27753257,1.13292863704
46,2.23205518418,0.994652099701,53.2991779318,2.1785944874,0.167268827131,71.0281479009,3.2292486107,0.15945522444,0.996169912485,3.05824300986,1.0,613.321782232,1.19741829916
47,2.2424184111,1.00963193771,52.7499981552,2.1754116627,0.166756031328,71.1577408321,3.21500987066,0.159049362969,0.997312499671,3.07173922643,1.0,613.310205415,1.2605925618
48,2.25247981224,1.02449069552,52.215663726,2.17236180566,0.166133631901,71.2932914808,3.20131352421,0.158465344108,0.998221417146,3.08476516493,1.0,613.293442377,1.32025039849
49,2.26225465939,1.03923037731,51.6954819601,2.16943806625,0.165403038645,71.4340987609,3.18813324702,0.157702479829,0.998919765252,3.09732625993,1.0,613.271358248,1.37678472147
50,2.27175716703,1.05385294816,51.1888042027,2.16663408076,0.165620539028,71.5795327576,3.17544430068,0.158686441605,0.999428181948,3.10922078101,1.0,613.299803085,1.42960786542
51,2.28100058407,1.06836033328,50.6950223508,2.16394392899,0.164692189162,71.7290270911,3.16322342638,0.157587973749,0.999766539438,3.12093716837,1.0,613.268024891,1.48106024822
52,2.28999727553,1.0827544167,50.2135657242,2.16136209619,0.164743420419,71.8820721574,3.15144874646,0.158300077583,0.999951509582,3.13213774965,1.0,613.288676211,1.5298503614
53,2.29875879665,1.09703704121,49.7438981948,2.15888343855,0.163622146969,72.0382091518,3.14009967193,0.156863084092,0.999998887572,3.14302130422,1.0,613.246809472,1.56462391284
54,2.30729595903,1.11121000784,49.2855155965,2.15650315246,0.163511388235,72.1970247653,3.12915681698,0.157295740987,0.999922796726,3.15353705444,1.0,613.259495699,1.51928447083
55,2.31561889087,1.12527507619,48.8379433424,2.15421674655,0.163328219976,72.358146484,3.11860191881,0.157606378153,0.999736073066,3.16374857127,1.0,613.268560985,1.47536295787
56,2.32373709094,1.13923396442,48.4007342722,2.15202001665,0.163073536169,72.5212384063,3.10841776363,0.157792994233,0.999450380188,3.17365693898,1.0,613.273989752,1.43277953722
57,2.33165947794,1.15308834992,47.9734666628,2.14990902289,0.161593968699,72.6859975285,3.09858811728,0.155696558821,0.999076774509,3.18296727839,1.0,613.212252343,1.39273436845
58,2.33939443479,1.16683986957,47.5557424312,2.14788006927,0.161185092848,72.85215043,3.08909766131,0.155596157117,0.998624232829,3.19220032041,1.0,613.209253735,1.35295230299
59,2.3469498493,1.18049012068,47.1471854656,2.14592968481,0.16070736955,73.0194503239,3.079931933,0.155369341474,0.998101825405,3.20113220961,1.0,613.202465312,1.31434619476
60,2.35433315079,1.19404066136,46.7474401178,2.14405460665,0.160161616019,73.1876744177,3.07107727018,0.15501557183,0.997517562556,3.20976325794,1.0,613.191837445,1.27688036409
61,2.36155134385,1.20749301166,46.3561697965,2.1422517645,0.159548631965,73.3566215615,3.06252075937,0.154534665701,0.996878740684,3.21809366002,1.0,613.177311842,1.24052693952
62,2.36861103876,1.22084865405,45.973055696,2.14051826662,0.158869200035,73.5261101362,3.05425018819,0.153926803034,0.996192008636,3.22612351586,1.0,613.158821195,1.20526517604
63,2.37551847957,1.23410903448,45.5977956105,2.13885138687,0.158124086321,73.695976168,3.0462540006,0.153192528779,0.995463428949,3.23385285171,1.0,613.136288777,1.1710809158
64,2.38227956976,1.24727556327,45.230102846,2.13724855299,0.157314040848,73.8660716367,3.03852125552,0.152332752884,0.994698534449,3.24128163868,1.0,613.10962798,1.137966162
65,2.38889989554,1.26034961581,44.8697052257,2.13570733583,0.157701409227,74.0362629529,3.03104158849,0.153728356261,0.993899542067,3.24927487806,1.0,613.152752836,1.10193110538
66,2.39538474758,1.27333253375,44.5163441553,2.13422543941,0.15677668419,74.2064295975,3.02380517561,0.152640142771,0.993076177906,3.25617326252,1.0,613.119194463,1.07057029041
67,2.4017391406,1.28622562557,44.1697737781,2.13280069197,0.155789095658,74.3764628899,3.01680270045,0.151428990197,0.992230304879,3.26277076856,1.0,613.081275547,1.04027679745
68,2.40796783165,1.29903016767,43.8297601791,2.13143103753,0.156039665661,74.5462648844,3.01002532292,0.152563619478,0.991362002388,3.27014491463,1.0,613.116816549,1.00587053766
69,2.41407533694,1.31174740533,43.4960806512,2.13011452833,0.154941140858,74.7157473762,3.00346465033,0.151125715316,0.990481585331,3.27621104615,1.0,613.071685059,0.977331404962
70,2.42006594714,1.32437855335,43.1685230229,2.1288493177,0.15378169979,74.8848309997,2.99711271066,0.149570227126,0.989589220336,3.28197592958,1.0,613.021882013,0.94990129438
71,2.42594374171,1.33692479706,42.8468850258,2.12763365362,0.153900257828,75.0534444193,2.99096192734,0.150436732195,0.98868266319,3.28872893269,1.0,613.049753012,0.917065113404
72,2.43171260214,1.34938729322,42.5309737074,2.12646587266,0.152633403459,75.2215235981,2.9850050959,0.148661084504,0.98777398812,3.29396158043,1.0,612.992288917,0.891469407468
73,2.43737622403,1.36176717069,42.2206048943,2.12534439446,0.152670599645,75.3890111323,2.97923536226,0.149363193527,0.98685547265,3.30032289562,1.0,613.015174758,0.859516586649
74,2.44293812841,1.3740655313,41.9156026836,2.12426771662,0.151298512898,75.5558556535,2.9736462023,0.147372861753,0.98594016732,3.30502291293,1.0,612.949728826,0.83584156118
75,2.44840167227,1.38628345079,41.6157989704,2.1232344099,0.151256158243,75.7220112864,2.96823140285,0.147909634888,0.985018267749,3.31099177448,1.0,612.967553104,0.804784045585
76,2.4537700582,1.39842197931,41.321033015,2.12224311385,0.151180760481,75.8874371533,2.96298504404,0.148385229145,0.984097709962,3.31679912119,1.0,612.983237679,0.796926795956
77,2.45904634339,1.41048214232,41.031151031,2.12129253272,0.149660773829,76.0520969297,2.95790148266,0.146083939945,0.983186335441,3.32073493771,1.0,612.906391371,0.81776548847
78,2.46423344814,1.42246494144,40.7460058019,2.12038143163,0.14950833316,76.2159584395,2.95297533662,0.146393877135,0.982272527949,3.32614898097,1.0,612.916882368,0.847749224414
79,2.46933416349,1.43437135487,40.46545633,2.1195086331,0.149323950839,76.3789932836,2.94820147056,0.14664115216,0.981364433488,3.33140098346,1.0,612.925220394,0.877618995025
80,2.47435115861,1.44620233828,40.1893674993,2.11867301372,0.147660304805,76.5411765072,2.94357498219,0.144044033834,0.980470919063,3.33457305936,1.0,612.836211999,0.895269454241
81,2.47928698754,1.45795882543,39.9176097656,2.11787350112,0.147401248619,76.702486294,2.93909118959,0.144128183766,0.979577195613,3.33943155657,1.0,612.839146474,0.92410774576
82,2.48414409553,1.46964172886,39.6500588625,2.11710907109,0.147111290185,76.8629036904,2.9347456193,0.144149340673,0.978692417278,3.34412779413,1.0,612.839883717,0.952840537741
83,2.48892482488,1.48125194038,39.3865955316,2.11637874494,0.146790738852,77.0224123498,2.9305339952,0.144107253875,0.977817460831,3.34866169932,1.0,612.838416929,0.981491834489
84,2.49363142052,1.49279033181,39.1271052633,2.11568158706,0.146439898438,77.1809983049,2.92645222802,0.144001764123,0.97695311182,3.35303323293,1.0,612.834736671,1.01008844968
85,2.49826603515,1.50425775549,38.8714780578,2.11501670251,0.146059067378,77.3386497561,2.92249640548,0.143832804916,0.976100073464,3.3572423904,1.0,612.828830838,1.03866087774
86,2.50283073407,1.51565504493,38.6196081972,2.11438323492,0.145648538887,77.4953568811,2.91866278309,0.143600403506,0.975258974945,3.36128920293,1.0,612.820684636,1.06724446056
87,2.50732749972,1.52698301524,38.3713940363,2.11378036446,0.145208601091,77.6511116582,2.91494777552,0.143304681509,0.974430379161,3.36517373827,1.0,612.810280544,1.09588098222
88,2.51175823587,1.53824246375,38.1267378009,2.1132073059,0.143199754939,77.8059077073,2.91134794841,0.139972987066,0.97362479269,3.36643380286,1.0,612.690014379,1.10322137782
89,2.51612477167,1.54943417053,37.8855453994,2.11266330685,0.142690640391,77.9597401448,2.90786001074,0.139527150937,0.972822828733,3.36992728446,1.0,612.673483206,1.13027577281
90,2.52042886535,1.5605588988,37.6477262489,2.11214764612,0.142153018879,78.1126054478,2.90448080761,0.139020441752,0.972034855379,3.3732592282,1.0,612.654565636,1.15731307057
91,2.52467220772,1.5716173955,37.4131931061,2.11165963209,0.141587158829,78.2645013333,2.90120731349,0.138453392223,0.971261254896,3.37642986561,1.0,612.633230425,1.18436955129
92,2.52885642548,1.58261039168,37.1818619118,2.11119860129,0.142577518846,78.4154266463,2.89803662582,0.14088713049,0.970490871289,3.38216727601,1.0,612.723581371,1.24215955743
93,2.53298308436,1.59353860308,36.9536516406,2.11076391698,0.141966908665,78.5653812575,2.89496595896,0.14021931357,0.969746250008,3.38508170134,1.0,612.699102653,1.27282452844
94,2.537053692,1.60440273037,36.7284841645,2.11035496788,0.141328775137,78.7143659687,2.89199263861,0.139491647761,0.969016763095,3.38783539788,1.0,612.67216222,1.30445552733
95,2.5410697007,1.61520345971,36.5062841185,2.10997116693,0.140663370461,78.8623824276,2.88911409636,0.138704989429,0.968302664834,3.39042874444,1.0,612.642718379,1.33750024691
96,2.54503251005,1.62594146312,36.2869787767,2.10961195013,0.139970942874,79.009433049,2.88632786472,0.137860278973,0.967604192567,3.39286215968,1.0,612.610725964,1.37272687606
97,2.54894346938,1.6366173989,36.0704979335,2.10927677545,0.139251736753,79.1555209429,2.88363157235,0.136958538004,0.966921570351,3.39513610219,1.0,612.576136205,1.41165097067
98,2.55280388002,1.64723191193,35.8567737939,2.10896512185,0.138505992711,79.3006498475,2.88102293951,0.136000866213,0.966255012317,3.39725107042,1.0,612.538896574,1.45813849641
99,2.55661499754,1.6577856341,35.6457408664,2.10867648824,0.1377339477,79.4448240692,2.87849977388,0.134988438002,0.965604725749,3.39920760268,1.0,612.498950619,1.53469054971
100,2.56037803377,1.66827918464,35.4373358636,2.10841039262,0.138605784232,79.5880484269,2.8760599665,0.137154704777,0.964956842467,3.40424810377,0.0,0.0,0.0
101,2.5640941588,1.67871317053,35.2314976068,2.10816637122,0.137792278391,79.7303282011,2.87370148798,0.136041824843,0.964337259869,3.40595197585,0.0,0.0,0.0
102,2.56776450276,1.6890881867,35.0281669376,2.10794397764,0.136953102361,79.8716690861,2.87142238492,0.134876384626,0.963734227929,3.40749882705,0.0,0.0,0.0
103,2.5713901576,1.69940481647,34.8272866319,2.10774278214,0.13608847994,80.012077148,2.86922077651,0.133659829518,0.963147935916,3.40888934308,0.0,0.0,0.0
104,2.57497217876,1.70966363179,34.6288013187,2.10756237088,0.136910006692,80.151558785,2.86709485127,0.135716174859,0.962564399793,3.41361329992,0.0,0.0,0.0
105,2.57851158672,1.7198651936,34.432657404,2.1074023452,0.136005361806,80.290120691,2.86504286405,0.134400802285,0.962008724037,3.4147540082,0.0,0.0,0.0
106,2.58200936847,1.73001005206,34.238802998,2.10726232102,0.135075866083,80.4277698222,2.8630631331,0.133037244248,0.961470005372,3.41574019412,0.0,0.0,0.0
107,2.58546647893,1.74009874686,34.0471878453,2.10714192823,0.134121731402,80.5645133671,2.86115403736,0.131627176454,0.960948448026,3.41657268806,0.0,0.0,0.0
108,2.5888838423,1.75013180749,33.8577632599,2.10704081002,0.13489505039,80.7003587179,2.85931401383,0.13356410592,0.960427239747,3.42098126962,0.0,0.0,0.0
109,2.59226235332,1.76010975352,33.6704820615,2.10695862241,0.133902249687,80.8353134454,2.8575415551,0.132058493872,0.959935985456,3.42156773025,0.0,0.0,0.0
110,2.59560287845,1.77003309482,33.485298517,2.10689503369,0.132885373661,80.9693852747,2.85583520704,0.130509948963,0.959462133374,3.42200269968,0.0,0.0,0.0
111,2.59890625708,1.77990233182,33.3021682831,2.10684972391,0.13362630737,81.1025820643,2.85419356654,0.132371951206,0.958988132114,3.42619080964,0.0,0.0,0.0
112,2.60217330253,1.78971795578,33.1210483524,2.10682238443,0.132571706617,81.2349117858,2.85261527942,0.130730508127,0.958544199111,3.4263829097,0.0,0.0,0.0
113,2.60540480319,1.79948044896,32.9418970024,2.10681271742,0.131493572536,81.3663825057,2.85109903839,0.129050134566,0.958117956797,3.42642599535,0.0,0.0,0.0
114,2.60860151873,1.80919027073,32.7646740039,2.10682043547,0.132203099052,81.497002178,2.84964358326,0.130833160418,0.95768945665,3.43039485029,0.0,0.0,0.0
115,2.61176419765,1.81884790781,32.5893396611,2.10684526117,0.131088143702,81.6267793032,2.84824769161,0.129063290858,0.957292766325,3.43019869257,0.0,0.0,0.0
