,theta i [rad],r orb [AU],v orb [km s-1],ang orb [rad],r L1 [AU],v i [km s-1],ang i [rad],a p [AU],e p,theta p i [rad],flag impact,v imp [km s-1],ang imp [rad]
0,0.0,0.5859,74.6947933226,1.57079632679,0.277994598104,7.46947933226,1.57079632679,0.140222787701,0.982520834614,3.14159265359,1.0,612.699230602,0.816811126881
1,0.0438145651731,0.586126582184,74.677547272,1.5884444763,0.278102105567,7.55640948849,1.74609464479,0.140306465752,0.982653811755,3.14472005043,1.0,612.702310478,0.813106729862
2,0.0875614933453,0.586805544586,74.6259247529,1.60606145667,0.278424255896,7.81072162756,1.91438009674,0.140557420836,0.983048702361,3.1477688317,1.0,612.711525112,0.802092257746
3,0.131173847729,0.587934545868,74.5402703214,1.62361642701,0.278959938186,8.21497542408,2.07036984536,0.140975417533,0.983693522275,3.15066198483,1.0,612.726800088,0.786746522388
4,0.174586075753,0.589509720572,74.4211505162,1.6410791951,0.279117218562,8.74545858911,2.21129234709,0.141257783344,0.984601161128,3.15330048524,1.0,612.737067291,0.813373437043
5,0.217734655637,0.591525733067,74.2693426045,1.65842052023,0.280071747001,9.37701327378,2.33661534652,0.142006389322,0.985678050281,3.15566019581,1.0,612.764089175,0.843976745135
6,0.260558690276,0.593975850617,74.085819465,1.67561239111,0.280637242253,10.0863089407,2.44726576596,0.142612879174,0.986953513707,3.15762367424,1.0,612.785772318,0.88181389297
7,0.303000437885,0.596852033477,73.8717311834,1.69262827381,0.281398710004,10.8533373935,2.54487111732,0.143377307127,0.988356869846,3.15916166008,1.0,612.812839651,0.924316378137
8,0.345005765443,0.600145039211,73.6283840523,1.70944332328,0.282951268263,11.6616829108,2.63124323803,0.144611154117,0.989825099925,3.16026743294,1.0,612.85592229,0.969506064368
9,0.386524520154,0.603844538383,73.3572177131,1.72603455612,0.2840910276,12.4981845801,2.7081010048,0.145688438152,0.991359810262,3.16082322287,1.0,612.89293903,1.01994991913
10,0.427510814313,0.607939238488,73.059781199,1.74238098249,0.285408915306,13.352397706,2.77695445031,0.146916875227,0.992891267072,3.16083572449,1.0,612.934484449,1.07366090829
11,0.467923223209,0.612417013037,72.737708616,1.75846369701,0.286898063712,14.2160564524,2.8390777896,0.14829391038,0.994374102141,3.16028157995,1.0,612.980233922,1.13031582975
12,0.507724898373,0.617265032774,72.3926951429,1.7742659298,0.288551325184,15.0826138514,2.89552390135,0.149816953341,0.995763935125,3.15914469459,1.0,613.029850882,1.18966290383
13,0.546883601997,0.622469896361,72.0264739418,1.78977306039,0.289738243618,15.9468740315,2.94715416257,0.151144244833,0.99702439001,3.15738160773,1.0,613.072272128,1.25222157227
14,0.585371667377,0.628017757797,71.6407944949,1.80497259701,0.291691935126,16.80470722,2.99467095736,0.152944933573,0.998101080328,3.1550620045,1.0,613.128641945,1.31631728379
15,0.623165896609,0.633894448791,71.237402735,1.81985412641,0.29378692029,17.6528315427,3.03864749045,0.154883327317,0.998966133626,3.15215001614,1.0,613.187852072,1.38274216956
16,0.66024740352,0.640085594208,70.8180232538,1.83440923802,0.295374837361,18.4886460178,3.07955313718,0.156596641774,0.999587411049,3.14863672353,1.0,613.238961927,1.45175627734
17,0.696601410403,0.646576719046,70.3843437773,1.84863142675,0.297723017378,19.3101018559,3.11777418683,0.158794759126,0.999933474004,3.14457161093,1.0,613.302912761,1.52275776311
18,0.732217010927,0.653353346391,69.9380019506,1.86251598003,0.299535371632,20.1156022396,3.15363047858,0.160745793588,0.999981559383,3.13994853878,1.0,613.358204581,1.54535852216
19,0.767086907028,0.660401085567,69.4805744375,1.87605985282,0.301444342988,20.9039232141,3.18738860449,0.162806068323,0.999711937944,3.13480195327,1.0,613.415148444,1.46946880769
20,0.801207127421,0.667705709965,69.0135682699,1.88926153448,0.303441837802,21.6741503263,3.21927233902,0.164971742192,0.999109910384,3.12915265813,1.0,613.473466641,1.39088183933
21,0.834576738534,0.675253225171,68.5384142731,1.90212091211,0.30619591056,22.4256272162,3.24947087188,0.167644196531,0.998161114186,3.12298139505,1.0,613.543347466,1.30861297628
22,0.867197550803,0.683029926855,68.0564624461,1.91463913218,0.308354855527,23.157913289,3.27814531156,0.170019904797,0.996863428202,3.11637808224,1.0,613.603617934,1.22307817529
23,0.899073829986,0.691022449678,67.5689790451,1.9268184647,0.310579663242,23.8707485316,3.30543383936,0.172490439617,0.995211666406,3.10933806022,1.0,613.664527155,1.13310188578
24,0.930212014284,0.699217806906,67.077145216,1.93866217048,0.3128632266,24.5640239109,3.33145580552,0.175052268829,0.993205641022,3.10188399053,1.0,613.725865352,1.03756487853
25,0.960620444786,0.70760342229,66.582056906,1.95017437473,0.314490413617,25.2377563455,3.35631500085,0.177251804675,0.990866084419,3.09414597516,1.0,613.777109751,0.936430538993
26,0.990309108277,0.716167154005,66.0847259026,1.96135994691,0.316862748539,25.8920673481,3.38010227908,0.179973405703,0.988167428266,3.08594964159,1.0,613.838777669,0.824135607731
27,1.01928939797,0.724897312335,65.5860817462,1.97222438896,0.319274095257,26.5271647931,3.40289767127,0.182775665057,0.985130595668,3.07740538633,1.0,613.900348051,0.873557567359
28,1.04757388994,0.733782670899,65.0869743901,1.98277373125,0.321718532133,27.1433272448,3.42477209684,0.185655369374,0.981764998254,3.0685333482,1.0,613.961677458,1.0251782294
29,1.07517613915,0.742812473079,64.5881773887,1.99301443779,0.323446876433,27.7408905312,3.44578875731,0.18810622062,0.978124219624,3.05954537406,1.0,614.01238977,1.22698386004
30,1.10211049264,0.751976433637,64.0903915095,2.00295331961,0.325931731277,28.3202361939,3.46600427586,0.191116808806,0.974143084044,3.05009846991,0.0,0.0,0.0
31,1.12839192068,0.761264736381,63.5942486285,2.01259745672,0.328433538713,28.8817815752,3.48546963442,0.194195096684,0.969870616005,3.04037965874,0.0,0.0,0.0
32,1.1540358663,0.770668028967,63.1003157759,2.02195412865,0.330176096308,29.4259713509,3.50423094919,0.196789821368,0.9653876289,3.03067316008,0.0,0.0,0.0
33,1.17905810988,0.780177414424,62.609099293,2.03103075228,0.332688270643,29.9532702656,3.52233011401,0.199978475489,0.960584972148,3.02048581535,0.0,0.0,0.0
34,1.20347465112,0.789784441076,62.1210489625,2.03983482764,0.334413235658,30.4641569799,3.53980533918,0.202644749954,0.955620673517,3.01039739575,0.0,0.0,0.0
35,1.22730160386,0.7994810901,61.636562116,2.04837388995,0.336118179889,30.9591188239,3.55669160282,0.205332650176,0.950444992821,3.00015685461,0.0,0.0,0.0
36,1.2505551061,0.809259762327,61.1559876075,2.05665546862,0.338609193727,31.4386473993,3.57302103321,0.208652737796,0.944970591808,2.98939645532,0.0,0.0,0.0
37,1.27325124083,0.819113263437,60.6796296789,2.06468705146,0.340272280508,31.9032348648,3.58882323232,0.211388765978,0.939412008717,2.97886730449,0.0,0.0,0.0
38,1.29540596957,0.829034789014,60.2077516307,2.07247605466,0.341904241236,32.3533708681,3.60412555285,0.214134165546,0.933691466736,2.96823078914,0.0,0.0,0.0
39,1.31703507475,0.839017908571,59.7405793371,2.08002979704,0.344341688137,32.7895399871,3.61895333507,0.217554833289,0.92768995792,2.95701834974,0.0,0.0,0.0
40,1.33815411252,0.849056549901,59.2783045379,2.087355479,0.345911931696,33.2122196619,3.63333011185,0.220325593878,0.921682457877,2.94617306807,0.0,0.0,0.0
41,1.35877837244,0.859144982795,58.8210879559,2.09446016484,0.347442019043,33.6218785021,3.64727778554,0.223093770147,0.915559677819,2.93525920479,0.0,0.0,0.0
42,1.37892284566,0.869277803419,58.3690621833,2.10135076875,0.348929332498,34.0189749627,3.66081678282,0.225855287574,0.909336266851,2.92428899102,0.0,0.0,0.0
43,1.39860219834,0.879449918331,57.9223343932,2.10803404349,0.351251773195,34.4039562919,3.67396618942,0.229356214509,0.902848038427,2.91264432019,0.0,0.0,0.0
44,1.41783075181,0.889656529375,57.480988827,2.11451657191,0.352656646307,34.7772577542,3.68388192812,0.232113162963,0.897485599812,2.90257127799,0.0,0.0,0.0
45,1.43662246651,0.899893118401,57.045089117,2.12080476044,0.354012011591,35.1393020458,3.68403560524,0.234851807798,0.895607386947,2.89594536852,0.0,0.0,0.0
46,1.45499093134,0.910155432993,56.6146804006,2.1269048348,0.355315938875,35.4904989133,3.68415231107,0.237568180467,0.893809156592,2.88941340412,0.0,0.0,0.0
47,1.4729493556,0.920439472122,56.1897912852,2.13282283712,0.356566646446,35.8312449047,3.68422934829,0.240258341818,0.892092053017,2.88298333106,0.0,0.0,0.0
48,1.49051056518,0.930741472905,55.7704356248,2.1385646248,0.357762492196,36.161923269,3.68426451707,0.242918383442,0.890456884036,2.87666272269,0.0,0.0,0.0
49,1.50768700042,0.941057897307,55.3566141662,2.14413587024,0.359843964858,36.4829039424,3.68425604842,0.246427121509,0.888708715626,2.86966779811,0.0,0.0,0.0
50,1.52449071728,0.951385420026,54.9483160263,2.14954206196,0.360936014346,36.7945436435,3.68420254632,0.249038491316,0.887237532935,2.86356228621,0.0,0.0,0.0
51,1.54093338947,0.961720916286,54.5455200614,2.15478850623,0.361969037723,37.0971860189,3.68410293723,0.251608534154,0.885849109395,2.85758672847,0.0,0.0,0.0
52,1.55702631321,0.972061450877,54.1481960842,2.15988032979,0.362941867226,37.39116187,3.68395642627,0.254133465813,0.884543118669,2.85174722186,0.0,0.0,0.0
53,1.57278041233,0.982404267063,53.7563059934,2.16482248278,0.363853436452,37.6767894043,3.68376245888,0.256609543623,0.883319005893,2.84604949115,0.0,0.0,0.0
54,1.58820624523,0.992746776538,53.3698047768,2.16961974241,0.364702773986,37.9543745399,3.6835206875,0.259033070072,0.882176008542,2.84049889226,0.0,0.0,0.0
55,1.60331401256,1.00308654981,52.9886414218,2.17427671695,0.365488997372,38.2242112331,3.68323094245,0.261400396721,0.881113176737,2.83510041655,0.0,0.0,0.0
56,1.6181135651,1.01342130679,52.6127597485,2.17879784989,0.366211307321,38.48658182,3.68289320655,0.263707928239,0.880129392912,2.82985869639,0.0,0.0,0.0
57,1.63261441308,1.02374890839,52.2420991395,2.18318742452,0.367893756143,38.7417573859,3.68250759295,0.267030549599,0.879025471616,2.82378801994,0.0,0.0,0.0
58,1.64682573491,1.03406734804,51.8765952186,2.18744956845,0.368496476675,38.9899981301,3.68207432577,0.269233193685,0.878196207718,2.8188480224,0.0,0.0,0.0
59,1.66075638693,1.04437474411,51.5161804441,2.19158825839,0.369033322308,39.2315537463,3.68159372324,0.271365763438,0.877441947545,2.81407677289,0.0,0.0,0.0
60,1.67441491322,1.05466933264,51.160784643,2.19560732502,0.369503774536,39.4666638034,3.68106618295,0.273424896489,0.87676107201,2.80947755106,0.0,0.0,0.0
61,1.68780955507,1.06494946028,50.8103354997,2.19951045764,0.369907374446,39.6955581173,3.68049216897,0.275407307323,0.876151879921,2.8050533135,0.0,0.0,0.0
62,1.70094826096,1.07521357784,50.4647589814,2.20330120909,0.370243718873,39.9184571281,3.67987220069,0.277309792867,0.875612602502,2.80080670275,0.0,0.0,0.0
63,1.71383869642,1.08546023436,50.1239797183,2.20698300049,0.371599003544,40.13557227,3.67920684295,0.28036441543,0.874948477546,2.79560699275,0.0,0.0,0.0
64,1.72648825352,1.09568807102,49.7879213521,2.21055912592,0.371810070556,40.3471063272,3.67849669758,0.28212365245,0.874544533409,2.79169941012,0.0,0.0,0.0
65,1.7389040605,1.10589581592,49.4565068353,2.21403275702,0.371952951531,40.5532537899,3.67774239599,0.283793877053,0.87420498664,2.78797586371,0.0,0.0,0.0
66,1.75109299132,1.11608227902,49.1296586975,2.21740694763,0.372027430793,40.7542011985,3.67694459266,0.285372240983,0.873927913736,2.78443784777,0.0,0.0,0.0
67,1.76306167461,1.12624634711,48.8072992897,2.22068463807,0.373160706062,40.950127473,3.67610395956,0.288198697421,0.873524136652,2.77986288974,0.0,0.0,0.0
68,1.77481650281,1.13638697945,48.4893509906,2.22386865953,0.373108041786,41.1412042384,3.67522118132,0.289610975545,0.873367460039,2.77667756058,0.0,0.0,0.0
69,1.78636364103,1.14650320358,48.175736389,2.22696173832,0.372986532199,41.3275961372,3.67429695095,0.290923377134,0.87326749032,2.77368100491,0.0,0.0,0.0
70,1.79770903536,1.1565941111,47.8663784515,2.22996649981,0.372796104401,41.5094611271,3.67333196628,0.292133495629,0.873222311549,2.77087372702,0.0,0.0,0.0
71,1.80885842128,1.16665885404,47.5612006609,2.23288547246,0.373704542372,41.6869507724,3.67232692676,0.294688817743,0.873049321033,2.76694641735,0.0,0.0,0.0
72,1.81981733176,1.17669664143,47.2601271366,2.23572109164,0.373386226115,41.8602105241,3.67128253078,0.295712792672,0.873109376547,2.76449778991,0.0,0.0,0.0
73,1.83059110484,1.18670673571,46.9630827475,2.23847570325,0.374186813133,42.0293799834,3.67019947338,0.29813312689,0.873042072906,2.760888119,0.0,0.0,0.0
74,1.84118489122,1.1966884498,46.6699932001,2.24115156731,0.37374054147,42.1945931605,3.66907844426,0.29896196623,0.873199993641,2.75879895444,0.0,0.0,0.0
75,1.85160366162,1.20664114417,46.3807851149,2.24375086139,0.374433192488,42.3559787221,3.6679201261,0.301238352737,0.873231184558,2.75550833292,0.0,0.0,0.0
76,1.86185221356,1.2165642239,46.0953860989,2.2462756839,0.373859080441,42.5136602227,3.66672519319,0.301863859321,0.873479825951,2.75377799077,0.0,0.0,0.0
77,1.87193517821,1.22645713623,45.8137247972,2.24872805722,0.374443875063,42.6677563329,3.66549431017,0.303987924659,0.873602502717,2.75080648512,0.0,0.0,0.0
78,1.88185702683,1.23631936805,45.5357309418,2.25110993078,0.373742196004,42.8183810532,3.66422813112,0.304402762686,0.873935013553,2.7494330091,0.0,0.0,0.0
79,1.8916220771,1.24615044367,45.2613353863,2.25342318403,0.37421935713,42.9656439221,3.66292729871,0.306366779936,0.874142415985,2.74677946728,0.0,0.0,0.0
80,1.90123449898,1.25594992254,44.9904701417,2.25566962915,0.373390522206,43.1096502094,3.66159244355,0.306564537069,0.87455229137,2.74575971646,0.0,0.0,0.0
81,1.91069832047,1.26571739723,44.723068397,2.2578510138,0.373760397284,43.2505011059,3.66022418368,0.308361482979,0.87483795828,2.74342188853,0.0,0.0,0.0
82,1.92001743336,1.27545249168,44.4590645348,2.25996902373,0.372804937233,43.3882939039,3.65882312414,0.308336726052,0.875319078568,2.74275166217,0.0,0.0,0.0
83,1.92919559822,1.28515485916,44.1983941498,2.26202528522,0.373067981875,43.5231221648,3.65738985671,0.30996033401,0.875676885409,2.74072631461,0.0,0.0,0.0
84,1.93823644973,1.29482418069,43.9409940517,2.26402136745,0.37328265144,43.655075885,3.65592495962,0.311509746788,0.876069991294,2.73884730104,0.0,0.0,0.0
85,1.94714350148,1.30446016341,43.6868022718,2.2659587848,0.37344906056,43.7842416499,3.6544289975,0.312983459189,0.876496960409,2.73711386168,0.0,0.0,0.0
86,1.95592015073,1.3140625392,43.435758059,2.26783899904,0.372251955333,43.9107027845,3.65290252124,0.312521330882,0.877104416166,2.73711086667,0.0,0.0,0.0
87,1.9645696828,1.32363106303,43.1878018824,2.26966342137,0.372312646154,44.0345394918,3.65134606799,0.31381090928,0.877592255012,2.73568165064,0.0,0.0,0.0
88,1.97309527548,1.33316551178,42.9428754214,2.27143341449,0.372325508106,44.1558289901,3.64976016122,0.315020922635,0.878109932039,2.73439482141,0.0,0.0,0.0
89,1.98150000309,1.34266568295,42.700921559,2.27315029443,0.37229068969,44.2746456402,3.64814531078,0.316150165226,0.878656175144,2.73324927849,0.0,0.0,0.0
90,1.98978684058,1.35213139352,42.4618843686,2.27481533248,0.372208346402,44.3910610696,3.64650201297,0.31719750494,0.87922975314,2.7322438487,0.0,0.0,0.0
91,1.99795866714,1.36156247872,42.225709106,2.27642975685,0.370715714784,44.5051442876,3.64483075077,0.316173957359,0.879966972436,2.73303738883,0.0,0.0,0.0
92,2.00601826999,1.37095879106,41.9923421925,2.27799475444,0.370529407864,44.6169617975,3.64313199394,0.317027750499,0.880589339803,2.73232226799,0.0,0.0,0.0
93,2.01396834779,1.38032019932,41.7617312,2.27951147238,0.370296114416,44.7265777032,3.64140619922,0.317797090291,0.881235672707,2.73174297937,0.0,0.0,0.0
94,2.02181151404,1.38964658759,41.5338248355,2.28098101958,0.370016013211,44.8340538096,3.63965381056,0.318481181898,0.881904909626,2.7312981032,0.0,0.0,0.0
95,2.02955030026,1.39893785449,41.3085729218,2.28240446827,0.369689287784,44.9394497207,3.63787525934,0.319079311858,0.882596029735,2.73098616786,0.0,0.0,0.0
96,2.03718715906,1.40819391216,41.0859263821,2.28378285531,0.369316126036,45.0428229297,3.63607096457,0.319590849153,0.88330805251,2.73080565351,0.0,0.0,0.0
97,2.04472446706,1.41741468561,40.8658372191,2.28511718361,0.368896719916,45.144228908,3.6342413332,0.320015246227,0.884040037247,2.73075499548,0.0,0.0,0.0
98,2.05216452778,1.42660011191,40.6482584969,2.28640842341,0.36843126509,45.2437211888,3.63238676029,0.320352039762,0.884791082474,2.73083258758,0.0,0.0,0.0
99,2.0595095743,1.4357501396,40.4331443189,2.28765751351,0.369357147984,45.3413514474,3.63050762932,0.322789761512,0.885439280749,2.72927600978,0.0,0.0,0.0
100,2.06676177183,1.44486472787,40.2204498116,2.28886536247,0.368809319898,45.4371695759,3.62860431246,0.322973172938,0.886227530428,2.72959418726,0.0,0.0,0.0
101,2.07392322025,1.45394384602,40.0101311012,2.29003284971,0.368216014043,45.5312237577,3.62667717079,0.323067526973,0.887032261107,2.73003593688,0.0,0.0,0.0
102,2.08099595645,1.4629874729,39.8021452945,2.29116082665,0.367577438136,45.6235605357,3.62472655459,0.323072681128,0.887852718681,2.73059951408,0.0,0.0,0.0
103,2.08798195663,1.47199559629,39.5964504589,2.29225011771,0.36689380229,45.7142248788,3.62275280359,0.322988579322,0.888688184478,2.73128314665,0.0,0.0,0.0
104,2.09488313853,1.48096821245,39.3930055998,2.29330152132,0.366165318818,45.8032602457,3.62075624726,0.322815251686,0.889537974275,2.73208503702,0.0,0.0,0.0
105,2.10170136345,1.48990532552,39.1917706434,2.29431581089,0.366883598708,45.8907086443,3.61873720502,0.324884475049,0.890291564059,2.73118183174,0.0,0.0,0.0
106,2.10843843833,1.49880694714,38.9927064144,2.29529373571,0.366074975124,45.9766106897,3.61669598654,0.324552541085,0.891169101283,2.73220594934,0.0,0.0,0.0
107,2.11509611765,1.50767309599,38.7957746163,2.29623602184,0.365222116405,46.0610056595,3.614632892,0.324131293441,0.892058993036,2.73334315246,0.0,0.0,0.0
108,2.12167610531,1.51650379732,38.6009378122,2.29714337293,0.365843263483,46.1439315457,3.61254821231,0.326024399869,0.892856574257,2.732744226,0.0,0.0,0.0
109,2.1281800564,1.52529908265,38.4081594034,2.29801647105,0.364911397229,46.225425106,3.61044222935,0.32544323461,0.893770239181,2.7340941901,0.0,0.0,0.0
110,2.13460957891,1.53405898928,38.2174036123,2.29885597746,0.363935921474,46.3055219105,3.60831521626,0.324773325117,0.894694557073,2.73555190271,0.0,0.0,0.0
111,2.14096623534,1.54278356003,38.0286354617,2.29966253334,0.364461386653,46.3842563884,3.60616743766,0.326485502631,0.895529857635,2.73524545173,0.0,0.0,0.0
112,2.14725154433,1.55147284286,37.8418207565,2.30043676052,0.3634080584,46.4616618715,3.60399914984,0.325655513712,0.896474476563,2.73690616062,0.0,0.0,0.0
113,2.15346698212,1.56012689054,37.6569260652,2.30117926212,0.363873444059,46.5377706363,3.60181060105,0.327255745181,0.897332940212,2.73678565976,0.0,0.0,0.0
114,2.15961398404,1.56874576044,37.4739187007,2.30189062328,0.362743018812,46.6126139441,3.5996020317,0.326265762531,0.898295733013,2.73864295705,0.0,0.0,0.0
115,2.16569394588,1.57732951411,37.292766704,2.3025714117,0.363148942326,46.6862220792,3.59737367455,0.327752401402,0.899174967018,2.73870333042,0.0,0.0,0.0
116,2.17170822524,1.58587821711,37.1134388258,2.30322217832,0.361942180835,46.7586243853,3.59512575498,0.326602972986,0.90015399488,2.7407507283,0.0,0.0,0.0
117,2.1776581428,1.59439193875,36.9359045092,2.30384345785,0.36228926452,46.8298493015,3.59285849115,0.327974705519,0.901051783728,2.74098681446,0.0,0.0,0.0
118,2.18354498357,1.60287075179,36.7601338732,2.30443576935,0.361006931256,46.8999243949,3.59057209422,0.326666837223,0.902045283093,2.74321776364,0.0,0.0,0.0
119,2.18936999811,1.6113147323,36.5860976956,2.30499961673,0.361295801014,46.9688763935,3.58826676855,0.327922685423,0.902959578115,2.74362433321,0.0,0.0,0.0
120,2.19513440361,1.61972395935,36.4137673977,2.30553548932,0.359938662832,47.0367312166,3.58594271189,0.326457833727,0.903965947386,2.74603223916,0.0,0.0,0.0
121,2.200839385,1.62809851489,36.243115028,2.30604386231,0.360169946938,47.1035140044,3.58360011555,0.327597156063,0.904894856115,2.74660401035,0.0,0.0,0.0
