,theta i [rad],r orb [AU],v orb [km s-1],ang orb [rad],r L1 [AU],v i [km s-1],ang i [rad],a p [AU],e p,theta p i [rad],flag impact,v imp [km s-1],ang imp [rad]
0,0.0,0.38925,94.5828041041,1.57079632679,0.184689192699,9.45828041041,1.57079632679,0.0932123833611,0.981380435082,3.14159265359,1.0,610.089192882,0.907307345654
1,0.0834457178434,0.389846022657,94.5017016307,1.60745808955,0.184971990236,9.93693251418,1.92685272654,0.0934477248924,0.981940802617,3.14844129666,1.0,610.108841058,0.918059844965
2,0.166384423448,0.391626340437,94.2605076435,1.64387987972,0.185424687227,11.2385198487,2.22992213887,0.093952185647,0.983589083507,3.15458413927,1.0,610.150623701,0.95115342511
3,0.248329246575,0.394568122576,93.8653985604,1.67983137441,0.186422579955,13.0882392283,2.46613692515,0.0949192950106,0.986086960609,3.15940240043,1.0,610.229476189,1.00304455458
4,0.328831608309,0.398634666705,93.3261472597,1.71510058904,0.187545842727,15.2450171199,2.64735699395,0.0961340195916,0.989159688104,3.16233151945,1.0,610.326256035,1.07244411504
5,0.407495731921,0.403777255136,92.6554231086,1.74950081275,0.189156915866,17.5478327881,2.78927243752,0.097787888213,0.992411400969,3.16301654903,1.0,610.45413456,1.15536332116
6,0.483988508018,0.409937454523,91.8679550944,1.78287530638,0.190811731651,19.8970151434,2.90388958129,0.0996473756619,0.995470471168,3.16116462094,1.0,610.592812149,1.25041891281
7,0.558044420538,0.417049630728,90.9796608128,1.81509962428,0.192869802786,22.2310082425,2.99925687573,0.101908416064,0.997952383607,3.15670825331,1.0,610.754578996,1.35491745324
8,0.629465885304,0.425043462805,90.0068312086,1.84608173267,0.195290243278,24.5113342944,3.08063045465,0.104557769633,0.999541546693,3.14963728307,1.0,610.93517534,1.46793827464
9,0.698119820831,0.433846280185,88.9654356147,1.8757603225,0.197597658776,26.7139638475,3.15148098502,0.107326685395,0.999985696537,3.14002133868,1.0,611.114340366,1.55242390952
10,0.763931501569,0.443385101139,87.8705821461,1.9041018248,0.199723022201,28.8243340271,3.2141577868,0.110161852061,0.999108534651,3.12805780792,1.0,611.288409454,1.42339885471
11,0.826876769773,0.453588306501,86.736141652,1.93109664807,0.202502891284,30.8343230826,3.27029896129,0.113572469989,0.99680827259,3.11388238523,1.0,611.486233315,1.28501415911
12,0.88697355652,0.464386931035,85.5745233522,1.95675509515,0.204999639953,32.7402942689,3.32108224462,0.116984932122,0.993060401574,3.09777425655,1.0,611.672561402,1.13585564812
13,0.944273457124,0.475715591175,84.3965781531,1.9811033172,0.207619621134,34.5417576141,3.36738004083,0.120650508886,0.987888026183,3.0798952911,1.0,611.860910569,0.971082644607
14,0.998853876473,0.487513090501,83.2116006955,2.00417955109,0.209840473189,36.2404153714,3.409856963,0.124208892147,0.981395100493,3.06062098929,1.0,612.03306706,0.787225380136
15,1.0508110534,0.499722755985,82.0274014081,2.02603078667,0.212094546925,37.8394636514,3.44903248041,0.127939976879,0.973675236126,3.04003881493,1.0,612.203246553,1.02229038673
16,1.10025410689,0.512292561122,80.8504232314,2.04670993019,0.214352647077,39.3430756748,3.48532203083,0.131821043796,0.964856592132,3.0183219335,1.0,612.369998792,1.51174184905
17,1.14730011861,0.525175087301,79.6858827122,2.06627346916,0.216588728618,40.7560190059,3.51906459137,0.135829493986,0.955079557466,2.99562911973,0.0,0.0,0.0
18,1.1920701969,0.538327370534,78.5379200614,2.08477961,0.218779696094,42.083374188,3.55054157915,0.139942726494,0.944489617177,2.97210572868,0.0,0.0,0.0
19,1.23468641248,0.551710670259,77.4097476452,2.10228683463,0.220352914356,43.3303306302,3.57999009119,0.143668138327,0.93335205765,2.94840085019,0.0,0.0,0.0
20,1.27526948684,0.565290191729,76.3037899455,2.11885281758,0.221815574788,44.5020416205,3.60761238511,0.147391388346,0.921725036069,2.92428483119,0.0,0.0,0.0
21,1.31393710236,0.579034783556,75.2218111996,2.13453364016,0.223151547318,45.6035241406,3.63358281206,0.151084164271,0.909740764128,2.8998895072,0.0,0.0,0.0
22,1.35080272052,0.592916628679,74.1650287993,2.1493832463,0.224940346758,46.6395925366,3.65805299582,0.155283074229,0.897342811157,2.87456444852,0.0,0.0,0.0
23,1.38597479883,0.60691093913,73.1342122063,2.16345308773,0.225996870415,47.6148172841,3.68115577724,0.158863865788,0.884977126152,2.84988354016,0.0,0.0,0.0
24,1.41955631999,0.620995663697,72.1297678379,2.17679191654,0.226268694522,48.5335022539,3.70300827714,0.161693959476,0.872795194867,2.82625590616,0.0,0.0,0.0
25,1.45164455735,0.635151212885,71.1518110465,2.18944568882,0.226975963252,49.3996752933,3.72371431556,0.164978814064,0.860470518046,2.80195014236,0.0,0.0,0.0
26,1.48233101511,0.649360203473,70.200226558,2.20145755012,0.22750357913,50.2170881834,3.7433663526,0.168090279535,0.848270592378,2.77795018735,0.0,0.0,0.0
27,1.51170149725,0.663607224737,69.2747187226,2.21286788049,0.227845127595,50.9892230882,3.76204706866,0.171000368419,0.836255287843,2.75436457763,0.0,0.0,0.0
28,1.53983626581,0.677878625659,68.374853023,2.22371438063,0.227995217869,51.7193032483,3.77983066663,0.173681747137,0.824473639899,2.73130006668,0.0,0.0,0.0
29,1.56681025971,0.692162322703,67.5000901119,2.2340321855,0.228642213175,52.4103063209,3.79678395691,0.176936457399,0.812677479258,2.70729328156,0.0,0.0,0.0
30,1.59269335266,0.706447627327,66.6498135331,2.24385399509,0.228410999142,53.0649792059,3.81296727062,0.179122121849,0.801459809619,2.68545188617,0.0,0.0,0.0
31,1.61755063194,0.720725091058,65.8233521992,2.25321021416,0.227977110448,53.6858534803,3.81957784808,0.18100348927,0.795666217142,2.66964035122,0.0,0.0,0.0
32,1.64144268792,0.734986367736,65.0199984507,2.26212909584,0.227338130371,54.2752609084,3.82261341565,0.182558306352,0.792130079771,2.65678586323,0.0,0.0,0.0
33,1.66442590377,0.749224090598,64.2390225056,2.27063688454,0.227242146248,54.8353485884,3.8254474553,0.184755851001,0.788640912542,2.64301796988,0.0,0.0,0.0
34,1.68655274006,0.763431763116,63.4796839178,2.2787579555,0.226966204541,55.3680934924,3.82808758966,0.186668670136,0.785481914321,2.63018917224,0.0,0.0,0.0
35,1.70787200916,0.777603661802,62.7412406057,2.28651494892,0.226509179495,55.8753162239,3.83054152516,0.188278645858,0.782633677026,2.61833897657,0.0,0.0,0.0
36,1.72842913805,0.791734750509,62.0229558555,2.29392889779,0.225870278945,56.3586939355,3.83281693423,0.189569362118,0.780076715036,2.6075015827,0.0,0.0,0.0
37,1.74826641622,0.805820603924,61.32410373,2.30101934821,0.225049002308,56.8197723267,3.83492136907,0.190526319702,0.777791946328,2.59770614426,0.0,0.0,0.0
38,1.76742322887,0.819857339998,60.6439731487,2.30780447227,0.224045103774,57.2599767517,3.83686219992,0.191137134784,0.775761110876,2.58897705921,0.0,0.0,0.0
39,1.78593627491,0.833841559985,59.9818709086,2.31430117323,0.223693236197,57.6806224459,3.83864657198,0.192626252723,0.773695716306,2.57876184226,0.0,0.0,0.0
40,1.8038397698,0.847770295345,59.337123849,2.32052518326,0.222338160466,58.0829239121,3.8402813766,0.192551803903,0.772124233637,2.57212925848,0.0,0.0,0.0
41,1.82116563343,0.861640960363,58.7090803467,2.32649115373,0.221663395167,58.4680035032,3.84177323333,0.193415695208,0.770494350907,2.56385490813,0.0,0.0,0.0
42,1.83794366457,0.875451310646,58.0971112408,2.33221273884,0.220834569844,58.8368992776,3.84312848027,0.193974830413,0.769061926626,2.55652323349,0.0,0.0,0.0
43,1.85420170137,0.889199405825,57.5006103502,2.3377026725,0.219852110374,59.19057215,3.84435317054,0.194222388614,0.767812655221,2.55014325814,0.0,0.0,0.0
44,1.86996576935,0.902883576399,56.9189946526,2.34297283908,0.218716547094,59.5299124076,3.84545307341,0.194153370662,0.766733626716,2.54472127284,0.0,0.0,0.0
45,1.88526021824,0.916502394719,56.3517041788,2.34803433865,0.218345920949,59.8557456538,3.84643367874,0.195226671168,0.765569191371,2.53714300489,0.0,0.0,0.0
46,1.90010784732,0.930054648767,55.7982017252,2.35289754669,0.216919657939,60.1688382062,3.84730020398,0.194547691039,0.764798139844,2.53355946756,0.0,0.0,0.0
47,1.91453002074,0.943539318767,55.2579724116,2.35481681139,0.217231279735,60.3181555812,3.84234091806,0.195823979539,0.767603175422,2.53280242556,0.0,0.0,0.0
48,1.928546774,0.956955556815,54.7305231067,2.35032168823,0.219362189846,60.1193907739,3.82425804604,0.198248715095,0.778797499727,2.54530468501,0.0,0.0,0.0
49,1.94217691138,0.970302668319,54.2153817878,2.34599755059,0.220479190057,59.9383189688,3.80666874374,0.199104942001,0.789653739434,2.56051125082,0.0,0.0,0.0
50,1.95543809544,0.983580095342,53.7120968463,2.3418364154,0.222511618331,59.7738415975,3.7895588716,0.201539341881,0.799782929823,2.57223789165,0.0,0.0,0.0
51,1.9683469299,0.996787402342,53.2202363317,2.33783079103,0.223503887191,59.6249311355,3.77291464257,0.202349572688,0.80960268436,2.58655834729,0.0,0.0,0.0
52,1.98091903499,1.0099242626,52.7393872084,2.33397364162,0.225438554299,59.490626389,3.75672262237,0.204784664333,0.818769623474,2.59760591986,0.0,0.0,0.0
53,1.99316911765,1.02299044692,52.2691545694,2.33025835409,0.226307201169,59.3700280694,3.74096972796,0.20553801843,0.827652571933,2.61114441953,0.0,0.0,0.0
54,2.00511103531,1.03598581272,51.8091608839,2.326678708,0.228145029033,59.2622946628,3.7256432265,0.207965406577,0.83595003711,2.62159092874,0.0,0.0,0.0
55,2.01675785531,1.04891029506,51.3590452227,2.32322884766,0.228891340883,59.1666385598,3.71073073256,0.208651724706,0.843986244033,2.63443237754,0.0,0.0,0.0
56,2.02812190904,1.06176389779,50.9184625275,2.31990325667,0.23063340445,59.0823224494,3.69622020576,0.211063453045,0.851497849879,2.64434164167,0.0,0.0,0.0
57,2.03921484239,1.07454668642,50.4870828706,2.31669673429,0.231258801621,59.0086559472,3.6820999468,0.211673175614,0.858768628841,2.65655604688,0.0,0.0,0.0
58,2.05004766168,1.08725878096,50.0645907644,2.31360437387,0.231817943541,58.9449924558,3.66835859382,0.212230091363,0.865681912387,2.66845246757,0.0,0.0,0.0
59,2.06063077671,1.09990035023,49.6506844672,2.31062154276,0.233412291799,58.8907262329,3.65498511738,0.214585707051,0.872148460341,2.6776265039,0.0,0.0,0.0
60,2.07097403985,1.11247160602,49.2450753411,2.30774386399,0.233852895433,58.8452896639,3.64196881578,0.215052503813,0.878404021075,2.68898187852,0.0,0.0,0.0
61,2.0810867826,1.12497279842,48.8474872164,2.30496719921,0.234228575934,58.8081507177,3.62929930933,0.215459928852,0.884352419245,2.70006013414,0.0,0.0,0.0
62,2.09097784936,1.13740421146,48.4576557882,2.30228763299,0.23567835542,58.778810578,3.61696653437,0.217741751647,0.889920615262,2.70859580437,0.0,0.0,0.0
63,2.10065562836,1.14976615884,48.0753280494,2.29970145834,0.235938005875,58.7568014384,3.60496073732,0.21804673867,0.895303629345,2.71919917839,0.0,0.0,0.0
64,2.11012808076,1.16205898079,47.7002617319,2.29720516323,0.236134112532,58.7416844485,3.59327246783,0.21828653909,0.900422664404,2.72955720169,0.0,0.0,0.0
65,2.11940276713,1.17428304043,47.3322247936,2.29479541825,0.236267163623,58.7330478018,3.58189257234,0.218459463728,0.905290781457,2.73967936409,0.0,0.0,0.0
66,2.12848687242,1.18643872113,46.9709949161,2.29246906505,0.23752527484,58.7305049558,3.57081218698,0.220604069558,0.90985096101,2.74746432659,0.0,0.0,0.0
67,2.13738722892,1.19852642392,46.6163590294,2.29022310567,0.237545783073,58.7336929746,3.56002273037,0.220659999266,0.914256866578,2.75717896949,0.0,0.0,0.0
68,2.14611033754,1.21054656495,46.2681128702,2.2880546927,0.237504636732,58.742270986,3.54951589671,0.220644274106,0.918447057069,2.76668092131,0.0,0.0,0.0
69,2.15466238781,1.22249957362,45.9260605463,2.28596112002,0.238626048277,58.7559187449,3.53928364817,0.22267741188,0.922374892622,2.77397919994,0.0,0.0,0.0
70,2.16304927613,1.23438589044,45.5900141408,2.28393981436,0.238474957199,58.7743352949,3.52931820788,0.222535149222,0.926167405861,2.78311164812,0.0,0.0,0.0
71,2.1712766231,1.24620596543,45.2597933239,2.28198832731,0.238263608406,58.7972377226,3.51961205243,0.222317231301,0.929774423503,2.79205004424,0.0,0.0,0.0
72,2.17934978954,1.25796025668,44.9352249857,2.28010432795,0.239251705882,58.8243599974,3.51015790451,0.224224563602,0.933157639957,2.79890498459,0.0,0.0,0.0
73,2.18727389124,1.26964922871,44.6161428992,2.27828559603,0.238932993411,58.8554518891,3.50094872584,0.223871814483,0.936422392938,2.80750459832,0.0,0.0,0.0
74,2.19505381296,1.28127335135,44.3023873884,2.27653001552,0.238555404189,58.8902779611,3.49197770987,0.223440232486,0.93952760392,2.81592534799,0.0,0.0,0.0
75,2.20269422146,1.29283309874,43.9938050159,2.27483556867,0.23941354225,58.9286166314,3.48323827453,0.225208538815,0.942441553948,2.82237204056,0.0,0.0,0.0
76,2.21019957748,1.30432894803,43.6902482966,2.27320033045,0.238931134078,58.9702592965,3.47472405546,0.224635177577,0.945252111979,2.83047914601,0.0,0.0,0.0
77,2.21757414716,1.31576137868,43.3915754137,2.27162246335,0.238391206214,59.0150095158,3.46642889895,0.223980678021,0.947925427707,2.83841992144,0.0,0.0,0.0
78,2.22482201258,1.32713087153,43.0976499577,2.27010021256,0.239122685033,59.0626822496,3.45834685516,0.225598002552,0.950434897003,2.84448711384,0.0,0.0,0.0
79,2.23194708171,1.33843790818,42.8083406733,2.26863190137,0.238480433576,59.11310315,3.45047217148,0.224796226824,0.95285449303,2.85213507469,0.0,0.0,0.0
80,2.23895309764,1.34968297017,42.5235212276,2.26721592699,0.239133024237,59.1661078969,3.44279928611,0.226320046022,0.955126899729,2.85797197796,0.0,0.0,0.0
81,2.24584364728,1.36086653845,42.2430699821,2.26585075657,0.238390039776,59.2215415798,3.43532282161,0.225367743361,0.95731674906,2.86533871742,0.0,0.0,0.0
82,2.25262216956,1.37198909298,41.9668697787,2.26453492345,0.238965072765,59.2792581209,3.42803757871,0.22679356395,0.959374241254,2.87095400221,0.0,0.0,0.0
83,2.25929196301,1.383051112,41.6948077421,2.2632670237,0.23812291971,59.3391197346,3.42093853036,0.22568810599,0.961356045138,2.87804992563,0.0,0.0,0.0
84,2.26585619294,1.39405307178,41.4267750847,2.26204571287,0.238621702511,59.4009964242,3.41402081576,0.227011791803,0.963218690435,2.88345135741,0.0,0.0,0.0
85,2.27231789824,1.40499544619,41.1626669269,2.26086970287,0.23768191787,59.4647655105,3.40727973471,0.2257512011,0.965012097186,2.89028586069,0.0,0.0,0.0
86,2.27867999768,1.41587870642,40.9023821221,2.25973775914,0.238105733966,59.5303111925,3.400710742,0.22696900392,0.966698083235,2.89548043556,0.0,0.0,0.0
87,2.28494529586,1.42670332056,40.6458230971,2.25864869793,0.237069826607,59.5975241344,3.39430944214,0.22555197932,0.968320885058,2.90206205761,0.0,0.0,0.0
88,2.2911164888,1.43746975345,40.3928956937,2.25760138374,0.237419934828,59.6663010812,3.38807158403,0.226660568484,0.969846699551,2.90705611858,0.0,0.0,0.0
89,2.29719616929,1.44817846634,40.1435090227,2.25659472697,0.236289384986,59.7365444985,3.381993056,0.225086506054,0.97131500964,2.91339267196,0.0,0.0,0.0
90,2.30318683182,1.45882991686,39.8975753216,2.25562768162,0.236567019144,59.8081622354,3.37606988083,0.226082996093,0.972695602142,2.91819200901,0.0,0.0,0.0
91,2.30909087723,1.4694245586,39.655009825,2.25469924318,0.235343278262,59.881067208,3.37029821112,0.22435200507,0.974024014317,2.92429069248,0.0,0.0,0.0
92,2.31491061721,1.47996284115,39.4157306353,2.25380844668,0.235549647004,59.9551771043,3.36467432467,0.225233980554,0.975272941904,2.92890062897,0.0,0.0,0.0
93,2.32064827841,1.49044520986,39.1796586039,2.25295436473,0.235726074853,60.0304141069,3.35919462006,0.226075596577,0.976461453355,2.93342861237,0.0,0.0,0.0
94,2.32630600642,1.50087210581,38.9467172147,2.25213610582,0.234370424565,60.1067046337,3.35385561236,0.224112430302,0.977604233066,2.93919359224,0.0,0.0,0.0
95,2.33188586949,1.5112439656,38.7168324783,2.25135281259,0.234477297606,60.1839790938,3.34865392908,0.224836259116,0.978679001003,2.94353908313,0.0,0.0,0.0
96,2.337389862,1.52156122135,38.4899328264,2.25060366027,0.234554988725,60.2621716594,3.34358630613,0.225517668811,0.979701541269,2.94780536086,1.0,614.649309634,1.44713243317
97,2.34281990785,1.53182430062,38.2659490137,2.24988785517,0.233070369724,60.3412200521,3.33864958406,0.223323315994,0.980684259237,2.95324922917,1.0,614.617858098,1.30019634287
98,2.34817786358,1.54203362635,38.0448140234,2.2492046333,0.233080163409,60.4210653415,3.33384070424,0.22388464749,0.981608559327,2.95733929083,1.0,614.625962469,1.22753139557
99,2.35346552134,1.55218961678,37.8264629794,2.24855325898,0.233061509701,60.5016517563,3.32915670543,0.224401870381,0.982487722527,2.96135263423,1.0,614.633394025,1.16841719291
100,2.35868461172,1.56229268547,37.6108330599,2.24793302362,0.231450773911,60.5829265078,3.32459472028,0.221979468005,0.983332458431,2.96648700998,1.0,614.598288976,1.10407524054
101,2.36383680643,1.57234324124,37.3978634165,2.24734324452,0.231365827984,60.6648396224,3.32015197202,0.222375357436,0.984126793847,2.97032993994,1.0,614.60407856,1.06019675968
102,2.36892372085,1.58234168822,37.1874950961,2.2467832637,0.231253145326,60.7473437868,3.31582577126,0.222725849052,0.984882133008,2.9740984654,1.0,614.609187014,1.02030253288
103,2.37394691639,1.59228842572,36.9796709688,2.24625244687,0.231112940378,60.8303941994,3.31161351297,0.223030465844,0.985600311988,2.97779322028,1.0,614.613613761,0.983586167726
104,2.3789079028,1.60218384836,36.7743356561,2.24575018239,0.230945425303,60.9139484328,3.30751267347,0.223288760753,0.986283082697,2.98141482784,1.0,614.617357863,0.949489716744
105,2.38380814034,1.61202834599,36.5714354641,2.24527588028,0.229137168026,60.9979663039,3.3035208076,0.220492371035,0.986938500333,2.98606917158,1.0,614.576355087,0.908615536644
106,2.38864904182,1.62182230375,36.3709183193,2.24482897136,0.228905856419,61.0824097513,3.299635546,0.220628458054,0.987554847962,2.98952890796,1.0,614.578374622,0.879115967139
107,2.39343197459,1.63156610208,36.1727337073,2.24440890633,0.22864790794,61.1672427206,3.29585459242,0.220717596297,0.988140625278,2.99291762575,1.0,614.579696082,0.851231075362
108,2.39815826232,1.64126011672,35.9768326148,2.24401515498,0.228363525497,61.2524310555,3.29217572123,0.220759492778,0.988697280194,2.99623591602,1.0,614.580316821,0.824783830105
109,2.40282918687,1.65090471875,35.7831674731,2.24364720536,0.228052909851,61.337942396,3.28859677494,0.220753888411,0.989226193973,2.99948436515,1.0,614.580233801,0.79963005888
110,2.40744598988,1.66050027461,35.5916921053,2.2433045631,0.227716259642,61.4237460822,3.28511566187,0.220700558677,0.989728684217,3.00266355567,1.0,614.579443585,0.795145853506
111,2.41200987443,1.67004714619,35.4023616742,2.24298675064,0.227353771422,61.509813064,3.28173035384,0.22059931425,0.990206007708,3.00577406721,1.0,614.577942337,0.818051305145
112,2.41652200653,1.67954569078,35.2151326347,2.24269330657,0.22696563967,61.5961158151,3.27843888407,0.220450001535,0.990659363129,3.00881647733,1.0,614.575725812,0.839967538205
113,2.42098351659,1.68899626116,35.0299626866,2.24242378501,0.224861369892,61.6826282531,3.27523934498,0.217078927552,0.991094078847,3.01276599098,1.0,614.524868968,0.867295881716
114,2.42539550077,1.69839920562,34.8468107298,2.24217775499,0.22441311405,61.7693256629,3.27212988627,0.216810447617,0.991502613246,3.01565897984,1.0,614.520750437,0.887235504167
115,2.42975902237,1.70775486804,34.665636821,2.24195479985,0.223939833348,61.856184626,3.26910871288,0.216494364948,0.991890480109,3.01848590188,1.0,614.515888545,0.906391550387
116,2.43407511298,1.7170635879,34.4864021341,2.24175451669,0.223441713949,61.9431829518,3.2661740832,0.216130693529,0.992258668307,3.02124733431,1.0,614.510277014,0.924810707793
117,2.43834477378,1.72632570031,34.3090689199,2.24157651588,0.222918940095,62.0302996143,3.26332430721,0.215719484208,0.992608120586,3.02394385604,1.0,614.503909109,0.94253437721
118,2.44256897663,1.73554153611,34.1336004688,2.24142042049,0.222371694137,62.1175146921,3.2605577448,0.215260824822,0.992939735604,3.02657604824,1.0,614.496777622,0.959599493754
119,2.44674866517,1.74471142189,33.9599610747,2.24128586587,0.221800156565,62.2048093111,3.25787280404,0.214754840253,0.993254369894,3.02914449493,1.0,614.488874862,0.976039192626
