,theta i [rad],r orb [AU],v orb [km s-1],ang orb [rad],r L1 [AU],v i [km s-1],ang i [rad],a p [AU],e p,theta p i [rad],flag impact,v imp [km s-1],ang imp [rad]
0,0.0,0.49185,82.7861903032,1.57079632679,0.23337027378,8.27861903032,1.57079632679,0.117746300333,0.981975426155,3.14159265359,1.0,611.712652748,0.823939731787
1,0.0578342373117,0.492196348202,82.7524466965,1.59513620459,0.233534607161,8.46348180935,1.81106318145,0.117878414311,0.982225353652,3.14602866461,1.0,611.719556475,0.829801199557
2,0.115506178032,0.493233265234,82.65162452,1.61940034406,0.234026597825,8.99280266728,2.03368766846,0.118274605117,0.982961293749,3.15026216445,1.0,611.74016682,0.847164527021
3,0.172856549223,0.494954422529,82.4849348205,1.64351443909,0.234347793162,9.80419708371,2.22844159707,0.118680285792,0.984175868669,3.15407120351,1.0,611.761127536,0.877152883252
4,0.229731985268,0.49734944999,82.2543474705,1.66740698111,0.234983927843,10.8245006186,2.39350881507,0.119343474747,0.985764000137,3.15728767607,1.0,611.795084779,0.916862080534
5,0.285987637622,0.500404191718,81.9625220303,1.6910104936,0.23592630413,11.988434494,2.53203617584,0.120260884131,0.987638349835,3.15975497274,1.0,611.841438436,0.965197217985
6,0.341489404133,0.504101043879,81.6127178596,1.71426258523,0.237164658815,13.2448611125,2.64873997627,0.121429024653,0.989696846952,3.16134116835,1.0,611.899442049,1.02108665417
7,0.396115705489,0.508419357188,81.2086893863,1.73710678683,0.23868736943,14.5559570002,2.74812765839,0.12284426076,0.99182813812,3.16194092112,1.0,611.96823016,1.08356808319
8,0.449758762812,0.513335884016,80.7545729744,1.7594931508,0.239967829218,15.8942819188,2.83391191632,0.124227432476,0.993929607042,3.16143294912,1.0,612.033938101,1.15277776109
9,0.502325373098,0.518825250087,80.2547716703,1.78137861128,0.242014584685,17.2399564418,2.90897066619,0.126119025232,0.995858072354,3.15985317007,1.0,612.121454472,1.22602307098
10,0.553737202157,0.524860431255,79.7138435102,1.80272711516,0.243779022698,18.5785105666,2.97548359643,0.127956220903,0.99752740756,3.15709470958,1.0,612.203965664,1.30455428257
11,0.603930646349,0.531413218605,79.1363979975,1.82350954829,0.245758669251,19.8993691205,3.03509338573,0.130008399272,0.998828064199,3.15319826218,1.0,612.293362217,1.38714833382
12,0.652856325725,0.53845465768,78.5270041816,1.84370348716,0.247937083216,21.1948087982,3.08904344377,0.132269615183,0.999675392424,3.14817854687,1.0,612.388638219,1.47369590667
13,0.700478282251,0.545955451048,77.8901124911,1.86329281148,0.249751396145,22.4592362654,3.13828373612,0.134417428773,0.999998555909,3.14206242326,1.0,612.476154546,1.56427808871
14,0.746772959564,0.553886316953,77.2299912936,1.88226721411,0.252270548396,23.6886788048,3.18354867452,0.137068807816,0.999741690927,3.13490533751,1.0,612.580390559,1.48267080047
15,0.791728039009,0.562218300306,76.5506781248,1.90062164398,0.254377052444,24.8804155504,3.22541350245,0.139572709748,0.998865831964,3.12677015085,1.0,612.675177348,1.38367890759
16,0.835341194556,0.570923034234,75.8559448194,1.91835571202,0.256601047092,26.032702957,3.26433494729,0.142238075414,0.997346640277,3.1177134823,1.0,612.772394302,1.27961434843
17,0.877618824063,0.579972953372,75.149275179,1.93547308725,0.258926867765,27.1445650593,3.30068060296,0.145057394937,0.995172625903,3.10779274404,1.0,612.871322623,1.16932682694
18,0.918574803182,0.589341461863,74.4338534826,1.95198090496,0.26133961093,28.215629659,3.334750294,0.148023370201,0.992343769918,3.09706548252,1.0,612.971313175,1.05100797438
19,0.958229293403,0.599003059347,73.7125620775,1.96788920187,0.263825175021,29.2459980714,3.36679172854,0.151128914041,0.988870026406,3.08558810896,1.0,613.071786414,0.921670758744
20,0.996607630609,0.60893342992,72.987986215,1.98321039064,0.266370282912,30.2361402966,3.39701206875,0.154367144458,0.984769794085,3.07341499078,1.0,613.172230585,0.794915776521
21,1.03373930876,0.61910949875,72.2624244574,1.99795878041,0.268342759499,31.1868099605,3.42558656245,0.157305274372,0.980106816388,3.06078804897,1.0,613.259774445,0.96567328703
22,1.06965706698,0.629509461259,71.5379031354,2.01215014725,0.270960032174,32.0989750149,3.45266504407,0.160771223322,0.974845001568,3.04740973827,1.0,613.358916361,1.20423419367
23,1.10439608272,0.640112789585,70.8161935477,2.02580135542,0.272961013204,32.9737612304,3.47837687849,0.163887175176,0.969107814689,3.0337446297,0.0,0.0,0.0
24,1.13799326806,0.650900220406,70.0988308301,2.0389300281,0.274954851717,33.812406179,3.50283475705,0.16707024425,0.962897382079,3.01965160791,0.0,0.0,0.0
25,1.17048666637,0.661853728593,69.3871335748,2.0515542659,0.276931794227,34.616221949,3.52613764217,0.170311529851,0.956255883399,3.0051766877,0.0,0.0,0.0
26,1.20191493953,0.672956489356,68.6822235684,2.06369240847,0.278882873374,35.3865650591,3.54837307274,0.173602199807,0.949226282083,2.99036298631,0.0,0.0,0.0
27,1.23231693954,0.684192832354,67.9850450951,2.07536283625,0.280799865065,36.1248124071,3.56961898771,0.176933474644,0.941851587301,2.97525094404,0.0,0.0,0.0
28,1.26173135502,0.695548190045,67.2963834513,2.08658380757,0.282675244364,36.8323422176,3.58994518266,0.18029661293,0.934174246327,2.95987856974,0.0,0.0,0.0
29,1.29019642404,0.707009042392,66.6168824137,2.0973733271,0.284502141171,37.5105191422,3.60941448456,0.183682898219,0.926235653782,2.94428169631,0.0,0.0,0.0
30,1.31774970429,0.71856285932,65.9470605239,2.10774904134,0.28627429632,38.1606827734,3.62808370792,0.187083627739,0.91807576412,2.92849423563,0.0,0.0,0.0
31,1.34442789405,0.73019804292,65.2873260685,2.1177281579,0.287986018971,38.7841390033,3.64600444148,0.190490103429,0.909732793277,2.91254842398,0.0,0.0,0.0
32,1.37026669482,0.74190386957,64.6379907813,2.12732738428,0.289632145346,39.3821536624,3.66322369996,0.193893625081,0.901242997385,2.89647505396,0.0,0.0,0.0
33,1.39530071036,0.753670433408,63.9992822492,2.13656288372,0.29120799939,39.9559480456,3.67978446975,0.197285486066,0.892640516401,2.88030368833,0.0,0.0,0.0
34,1.41956337593,0.765488591547,63.371355078,2.14545024502,0.291943100609,40.5066959504,3.69572616931,0.199937494686,0.884161170287,2.86487404926,0.0,0.0,0.0
35,1.44308691205,0.777349911186,62.7543009,2.15400446368,0.293354274947,41.0355219155,3.71108504041,0.203251520532,0.875439978134,2.84865537182,0.0,0.0,0.0
36,1.46590229978,0.789246619657,62.1481572615,2.16223993304,0.294683676991,41.5435004436,3.72589448396,0.206526987287,0.866694683757,2.83242417188,0.0,0.0,0.0
37,1.48803927184,0.80117155666,61.5529155235,2.1701704426,0.29512626333,42.0316559575,3.74018534917,0.208950287561,0.858193500026,2.81721628944,0.0,0.0,0.0
38,1.50952631723,0.813118129187,60.9685278394,2.17780918257,0.296271274541,42.5009633423,3.74322483404,0.212092274849,0.854470427624,2.80598664231,0.0,0.0,0.0
39,1.5303906972,0.825080269614,60.3949132744,2.18516875347,0.297326227558,42.9523489483,3.74460670212,0.215169078613,0.851620635919,2.79567439873,0.0,0.0,0.0
40,1.55065846887,0.837052396085,59.8319631911,2.19226117917,0.297451055969,43.3866919089,3.74589326187,0.217276825043,0.849188183687,2.7867645689,0.0,0.0,0.0
41,1.5703545151,0.849029375513,59.279545959,2.19909792273,0.298307622757,43.804825697,3.74708457788,0.2201658305,0.846674319462,2.77701679087,0.0,0.0,0.0
42,1.58950257989,0.861006489566,58.7375110407,2.20568990462,0.29906832456,44.2075398628,3.7481811965,0.222963740324,0.844325051826,2.76755337923,0.0,0.0,0.0
43,1.6081253064,0.872979402699,58.2056925607,2.21204752202,0.29973167118,44.5955818622,3.74918405037,0.225662312098,0.842137556749,2.75838984876,0.0,0.0,0.0
44,1.62624427729,0.884944132434,57.6839124012,2.2181806691,0.299410531711,44.9696589435,3.75009437906,0.227231442058,0.840357015395,2.75088174421,0.0,0.0,0.0
45,1.64388005721,0.896897022387,57.1719828556,2.22409875807,0.299863473394,45.330440074,3.75091366319,0.229674110569,0.838481102398,2.74240684464,0.0,0.0,0.0
46,1.66105223481,0.908834716586,56.6697089459,2.22981074007,0.30021567662,45.6785578365,3.75164356964,0.231993432289,0.836755021523,2.73427113127,0.0,0.0,0.0
47,1.67777946606,0.920754136487,56.1768903827,2.23532512633,0.300466319311,46.0146103211,3.75228590628,0.234181934501,0.835174154406,2.72648544086,0.0,0.0,0.0
48,1.69407951607,0.93265245906,55.6933232724,2.24065000867,0.300614711052,46.3391629516,3.75284258423,0.236232392129,0.833733630466,2.71905951604,0.0,0.0,0.0
49,1.70996930128,0.944527097245,55.2188015474,2.24579308005,0.300660281756,46.6527502748,3.7533155869,0.238137857591,0.832428397579,2.71200203718,0.0,0.0,0.0
50,1.72546492964,0.956375681279,54.7531182064,2.25076165407,0.300602571069,46.9558776676,3.75370694431,0.239891690562,0.831253287204,2.70532065844,0.0,0.0,0.0
51,1.74058174058,0.968196042135,54.2960663397,2.25556268426,0.300441218884,47.2490229899,3.75401871204,0.24148758808,0.830203073753,2.69902204594,0.0,0.0,0.0
52,1.75533434278,0.979986195626,53.8474400159,2.26020278237,0.300175956448,47.5326381482,3.75425295396,0.242919613879,0.829272528534,2.69311191892,0.0,0.0,0.0
53,1.76973665135,0.991744328389,53.4070350005,2.26468823618,0.299806598429,47.8071505992,3.75441172823,0.244182227359,0.828456468199,2.68759509179,0.0,0.0,0.0
54,1.78380192268,1.00346878436,52.9746493759,2.2690250263,0.299333035458,48.0729647617,3.75449707588,0.245270311077,0.827749798114,2.6824755181,0.0,0.0,0.0
55,1.79754278864,1.01515805292,52.5500840296,2.27321884245,0.299771401717,48.330463369,3.75451101169,0.247562216238,0.826920395582,2.67591612151,0.0,0.0,0.0
56,1.81097128838,1.02681075739,52.1331430738,2.27727509875,0.299101036168,48.5800087329,3.75445551694,0.248318375336,0.826419630425,2.6715570892,0.0,0.0,0.0
57,1.82409889946,1.03842564504,51.7236341615,2.28119894851,0.298326491374,48.8219439504,3.75433253369,0.248886704207,0.826013661924,2.66760301504,0.0,0.0,0.0
58,1.83693656666,1.0500015772,51.3213687584,2.28499529797,0.298498951655,49.0565940268,3.7541439604,0.250743690365,0.825479039329,2.66208751474,0.0,0.0,0.0
59,1.84949473017,1.06153752095,50.9261623298,2.28866881962,0.297528038709,49.2842669478,3.75389164864,0.250955582434,0.825250843648,2.65890474682,0.0,0.0,0.0
60,1.8617833515,1.07303254062,50.5378345027,2.29222396461,0.297527546122,49.5052546729,3.75357740068,0.252513944752,0.824891204618,2.65407901618,0.0,0.0,0.0
61,1.87381193866,1.08448579059,50.1562091654,2.29566497459,0.29636098667,49.7198340804,3.75320296782,0.252356844051,0.824823767643,2.65166892601,0.0,0.0,0.0
62,1.88558956988,1.09589650851,49.7811145353,2.29899589292,0.29618825042,49.9282678515,3.75277004941,0.253602958269,0.82462213915,2.64753456452,0.0,0.0,0.0
63,1.89712491571,1.10726400869,49.4123832054,2.30222057516,0.295935430641,50.130805295,3.75228029231,0.254705560677,0.824495616735,2.64372551549,0.0,0.0,0.0
64,1.90842626052,1.1185876766,49.0498521454,2.30534269912,0.295602754287,50.3276831314,3.75173529079,0.255661694665,0.824440345453,2.64024139498,0.0,0.0,0.0
65,1.91950152214,1.1298669632,48.693362702,2.30836577419,0.295190472799,50.5191262171,3.75113658679,0.256468703294,0.824452645767,2.63708142193,0.0,0.0,0.0
66,1.93035827099,1.14110138012,48.3427605639,2.31129315028,0.294698859882,50.7053482324,3.75048567047,0.257124240414,0.824529021469,2.63424444519,0.0,0.0,0.0
67,1.941003748,1.15229049516,47.9978957151,2.31412802622,0.294128209447,50.8865523243,3.74978398091,0.257626280468,0.824666165863,2.63172896957,0.0,0.0,0.0
68,1.95144488124,1.16343392783,47.6586223842,2.31687345761,0.29347883364,51.0629317053,3.74903290707,0.257973126745,0.824860966338,2.62953318096,0.0,0.0,0.0
69,1.961688302,1.17453134558,47.3247989724,2.31953236431,0.292751061123,51.23467022,3.74823378886,0.258163418354,0.82511050746,2.6276549699,0.0,0.0,0.0
70,1.97174035994,1.18558246026,46.9962879749,2.32210753747,0.291945235491,51.401942876,3.74738791828,0.258196135626,0.825412072738,2.62609195392,0.0,0.0,0.0
71,1.98160713706,1.19658702455,46.6729559036,2.32460164617,0.291061713731,51.5649163369,3.74649654068,0.258070603732,0.825763145183,2.62484149887,0.0,0.0,0.0
72,1.99129446126,1.20754482903,46.3546731956,2.32701724367,0.291309618481,51.7237493903,3.74556085611,0.259701626992,0.825985637609,2.62140434576,0.0,0.0,0.0
73,2.00080791908,1.21845569939,46.0413141178,2.32935677332,0.290282744285,51.8785933861,3.74458202058,0.25928359388,0.826429975762,2.62073714704,0.0,0.0,0.0
74,2.0101528675,1.22931949355,45.7327566784,2.33162257411,0.289179265356,52.0295926429,3.7435611475,0.258706114473,0.826917023856,2.62037393672,0.0,0.0,0.0
75,2.01933444533,1.24013609938,45.4288825253,2.33381688594,0.289240957231,52.1768848354,3.742499309,0.259968662942,0.827276535869,2.61771657884,0.0,0.0,0.0
76,2.02835758398,1.25090543246,45.1295768463,2.33594185459,0.287996250855,52.3206013561,3.74139753735,0.259095700365,0.827843731706,2.6179196956,0.0,0.0,0.0
77,2.03722701739,1.26162743382,44.8347282754,2.33799953636,0.287938999062,52.4608676523,3.74025682629,0.260118921448,0.828284917664,2.61575926432,0.0,0.0,0.0
78,2.04594729163,1.27230206808,44.544228791,2.3399919025,0.287828100653,52.5978035459,3.73907813238,0.26103805495,0.828766306928,2.61382798775,0.0,0.0,0.0
79,2.05452277403,1.28292932178,44.2579736147,2.34192084344,0.286379623566,52.7315235345,3.73786237634,0.259731378461,0.829439646023,2.61484221739,0.0,0.0,0.0
80,2.06295766151,1.29350920141,43.9758611207,2.34378817262,0.286151690402,52.8621370697,3.73661044433,0.260406379019,0.82999061792,2.61339238526,0.0,0.0,0.0
81,2.07125598877,1.30404173211,43.6977927346,2.34559563029,0.285871015559,52.9897488237,3.73532318922,0.260974552972,0.830575909881,2.61216437085,0.0,0.0,0.0
82,2.07942163587,1.31452695607,43.4236728413,2.347344887,0.284222049793,53.1144589373,3.73400143186,0.2592373628,0.831341647069,2.61396009231,0.0,0.0,0.0
83,2.08745833554,1.32496493139,43.1534086887,2.34903754694,0.28382632689,53.2363632557,3.73264596221,0.259560310811,0.831986793666,2.61319598337,0.0,0.0,0.0
84,2.09536967983,1.33535573059,42.8869103022,2.35067515104,0.283378798943,53.3555535464,3.73125754056,0.259775351569,0.832661464897,2.61264544598,0.0,0.0,0.0
85,2.10315912675,1.34569943962,42.6240903922,2.35225917999,0.282879767361,53.4721177081,3.72983689864,0.259882188115,0.833364187009,2.61230577801,0.0,0.0,0.0
86,2.11083000627,1.35599615675,42.3648642686,2.35379105702,0.282329535425,53.5861399661,3.72838474073,0.25988068057,0.834093589073,2.61217420677,0.0,0.0,0.0
87,2.11838552626,1.36624599161,42.1091497542,2.35527215059,0.28172840798,53.6977010569,3.72690174464,0.259770846013,0.834848400336,2.61224789579,0.0,0.0,0.0
88,2.12582877783,1.37644906419,41.8568671065,2.35568520351,0.281076691099,53.7651169865,3.72319184041,0.259212246129,0.836869075985,2.61539290177,0.0,0.0,0.0
89,2.13316274065,1.38660550404,41.6079389349,2.35430177823,0.281762685325,53.7596125622,3.7156730332,0.260336283647,0.840880768031,2.62069062989,0.0,0.0,0.0
90,2.14039028784,1.39671544943,41.3622901244,2.35296533529,0.282418945056,53.7572092736,3.70831592325,0.261439086517,0.844763991532,2.62589104666,0.0,0.0,0.0
91,2.14751419074,1.40677904671,41.1198477583,2.35167470149,0.283045639362,53.7577759521,3.70111732693,0.262519937641,0.848522984827,2.63099657605,0.0,0.0,0.0
92,2.15453712321,1.41679644948,40.880541049,2.35042874714,0.283642938175,53.7611871225,3.69407413172,0.263578128801,0.852161835828,2.63600952608,0.0,0.0,0.0
93,2.16146166602,1.42676781804,40.6443012643,2.34922638402,0.282782816141,53.7673227401,3.687183295,0.26214759761,0.855796335124,2.64375062832,0.0,0.0,0.0
94,2.1682903107,1.43669331873,40.4110616611,2.34806656367,0.28331190105,53.7760679401,3.68044184291,0.263131788004,0.859201543948,2.64856296391,0.0,0.0,0.0
95,2.17502546352,1.4465731235,40.1807574166,2.34694827557,0.283812149723,53.7873127994,3.67384686914,0.264091173604,0.86249821827,2.65328981814,0.0,0.0,0.0
96,2.18166944895,1.45640740924,39.953325568,2.34587054554,0.284283733909,53.8009521099,3.66739553382,0.265025095234,0.8656898927,2.65793307622,0.0,0.0,0.0
97,2.18822451317,1.46619635738,39.7287049484,2.34483243418,0.284726825537,53.8168851622,3.66108506224,0.265932903239,0.868779977382,2.66249454228,0.0,0.0,0.0
98,2.19469282735,1.47594015342,39.5068361281,2.34383303538,0.283664179029,53.8350155403,3.65491274368,0.264238391914,0.871866668034,2.66969180227,0.0,0.0,0.0
99,2.20107649075,1.4856389866,39.2876613553,2.34287147489,0.284041092933,53.8552509259,3.64887593015,0.26506569049,0.874759121808,2.67407657161,0.0,0.0,0.0
100,2.20737753365,1.49529304935,39.0711245035,2.34194690902,0.284390074857,53.8775029122,3.64297203523,0.265864984851,0.877559682707,2.67838518557,0.0,0.0,0.0
101,2.21359792019,1.50490253705,38.8571710156,2.34105852334,0.284711296212,53.9016868265,3.63719853281,0.266635679401,0.880271302137,2.68261914996,0.0,0.0,0.0
102,2.21973955106,1.51446764768,38.6457478526,2.34020553147,0.285004928113,53.9277215611,3.63155295585,0.267377189465,0.882896828343,2.68677991309,0.0,0.0,0.0
103,2.22580426602,1.52398858148,38.4368034444,2.33938717396,0.285271141305,53.9555294132,3.62603289523,0.268088941602,0.885439010158,2.69086886924,0.0,0.0,0.0
104,2.23179384639,1.53346554071,38.2302876397,2.33860271713,0.283975105577,53.9850359315,3.62063599844,0.266062664249,0.88797867135,2.69750292512,0.0,0.0,0.0
105,2.23771001729,1.54289872929,38.026151662,2.3378514521,0.284177549185,54.0161697704,3.6153599685,0.266687540556,0.890358712766,2.70143771481,0.0,0.0,0.0
106,2.2435544499,1.55228835263,37.8243480634,2.33713269374,0.284353127112,54.0488625513,3.61020256267,0.267281098521,0.892663238262,2.70530513642,0.0,0.0,0.0
107,2.24932876355,1.56163461739,37.6248306813,2.33644577976,0.284502007833,54.0830487305,3.60516159131,0.267842827604,0.894894629588,2.70910638426,0.0,0.0,0.0
108,2.25503452775,1.5709377312,37.4275545975,2.33579006978,0.284624359174,54.1186654733,3.60023491669,0.268372230423,0.897055185912,2.71284261403,0.0,0.0,0.0
109,2.2606732641,1.58019790258,37.2324760965,2.33516494447,0.284720348286,54.1556525341,3.59542045184,0.268868823156,0.899147126798,2.7165149452,0.0,0.0,0.0
110,2.26624644807,1.5894153406,37.0395526288,2.33456980476,0.284790141589,54.1939521417,3.59071615943,0.269332135909,0.90117259503,2.72012446313,0.0,0.0,0.0
111,2.27175551084,1.59859025482,36.8487427723,2.33400407104,0.28323371431,54.2335088913,3.5861200506,0.266905420239,0.903197218745,2.72619671847,0.0,0.0,0.0
112,2.27720184087,1.60772285507,36.6600061965,2.33346718239,0.283242470462,54.2742696399,3.58163018389,0.26727656262,0.905093437879,2.72967277538,0.0,0.0,0.0
113,2.2825867856,1.61681335137,36.473303627,2.3329585959,0.283225567564,54.3161834083,3.57724466408,0.267613297932,0.906929297139,2.73308955145,0.0,0.0,0.0
114,2.28791165288,1.6258619537,36.2885968141,2.33247778598,0.283183168626,54.3592012859,3.57296164121,0.267915230756,0.908706655275,2.73644800586,0.0,0.0,0.0
115,2.29317771247,1.63486887192,36.1058484983,2.3320242437,0.283115435799,54.4032763416,3.56877930942,0.268181981654,0.910427307087,2.73974907359,0.0,0.0,0.0
116,2.29838619742,1.64383431566,35.9250223805,2.33159747618,0.283022530351,54.4483635381,3.56469590598,0.26841318755,0.912092985681,2.74299366693,0.0,0.0,0.0
117,2.30353830544,1.65275849418,35.7460830915,2.33119700599,0.28290461265,54.4944196498,3.56070971022,0.268608502114,0.913705364632,2.74618267695,0.0,0.0,0.0
118,2.30863520014,1.66164161629,35.5689961625,2.33082237058,0.282761842153,54.5414031856,3.55681904256,0.268767596149,0.915266060091,2.74931697484,0.0,0.0,0.0
119,2.31367801223,1.67048389026,35.3937279987,2.33047312174,0.282594377379,54.5892743139,3.55302226349,0.268890157942,0.916776632777,2.75239741323,0.0,0.0,0.0
120,2.31866784074,1.67928552369,35.2202458508,2.3301488251,0.28240237591,54.6379947926,3.54931777265,0.268975893643,0.918238589932,2.75542482743,0.0,0.0,0.0
121,2.32360575412,1.68804672348,35.0485177899,2.32984905961,0.282185994376,54.6875279006,3.54570400783,0.269024527613,0.919653387181,2.75840003657,0.0,0.0,0.0
122,2.32849279127,1.69676769573,34.8785126822,2.32957341705,0.281945388446,54.737838374,3.54217944409,0.26903580276,0.921022430335,2.76132384475,0.0,0.0,0.0
