,theta i [rad],r orb [AU],v orb [km s-1],ang orb [rad],r L1 [AU],v i [km s-1],ang i [rad],a p [AU],e p,theta p i [rad],flag impact,v imp [km s-1],ang imp [rad]
0,0.0,0.3123,106.85217067,1.57079632679,0.148178381888,10.685217067,1.57079632679,0.0748022738494,0.980934191741,3.14159265359,1.0,608.165985939,0.976431816105
1,0.117373906142,0.31327535763,106.669876851,1.62390223068,0.148327575247,11.7997847383,2.07128114539,0.0750369986281,0.982133766363,3.15156941429,1.0,608.196493114,0.996711229591
2,0.233305051728,0.316176142553,106.132557343,1.67631790285,0.149384527332,14.5895371957,2.44370291348,0.07605493055,0.985360859515,3.15949890087,1.0,608.326597481,1.05273103548
3,0.346464356394,0.320929207153,105.267431233,1.72740803277,0.150666468163,18.1825963172,2.69748735645,0.0775087012863,0.989877171729,3.1635958778,1.0,608.506436291,1.14169384022
4,0.455728211091,0.327421054443,104.115410324,1.77663652379,0.15240319708,22.0434131611,2.8776658858,0.0795197837928,0.994542541463,3.16272702219,1.0,608.744295801,1.25595272044
5,0.560233996807,0.33550848003,102.725738495,1.82359318545,0.154824237124,25.9033039624,3.01408917292,0.0822252550914,0.998216251905,3.15638540715,1.0,609.045795165,1.38970678173
6,0.659396094021,0.345030275768,101.150521102,1.8680012779,0.157145925033,29.6269002212,3.12306106185,0.0851945322233,0.999950770315,3.14447279956,1.0,609.35449764,1.54033824054
7,0.75288883477,0.355818161874,99.4401541482,1.90970906851,0.159922280636,33.145853928,3.21355768716,0.088747235674,0.999077239826,3.12737893663,1.0,609.69652972,1.4359258848
8,0.840607974384,0.367705747577,97.6401608643,1.94867104092,0.162688632782,36.4286847126,3.29079837071,0.0926105376459,0.995266422357,3.10564896477,1.0,610.038488885,1.25493966861
9,0.92262265846,0.380535030874,95.7894723588,1.98492457356,0.165317524698,39.4655951993,3.35801741505,0.0966868057081,0.988494387761,3.07998705615,1.0,610.369487675,1.05442935968
10,0.999127218099,0.394160504237,93.9198922288,2.0185666076,0.167685904039,42.2598142422,3.41734651398,0.100862835206,0.978982255739,3.05115467539,1.0,610.680679365,0.823603677083
11,1.07039852766,0.408451257871,92.0563756403,2.04973306733,0.170085812982,44.8222144064,3.47027082787,0.105321939077,0.967059027834,3.01963405851,1.0,610.985568059,1.0478009147
12,1.13676145758,0.423291586569,90.217774327,2.07858224012,0.17245213182,47.1678283092,3.5178754214,0.110008775952,0.953139606858,2.98593159503,0.0,0.0,0.0
13,1.19856275622,0.438580587308,88.4177799006,2.10528225825,0.174290787971,49.3135832122,3.56098463471,0.11448810729,0.937777417571,2.95100797403,0.0,0.0,0.0
14,1.25615246752,0.454231148749,86.6658893644,2.13000223425,0.175508736248,51.2768557994,3.60024457189,0.118590998812,0.92148507504,2.91563325115,0.0,0.0,0.0
15,1.309871488,0.470168629041,84.9682934755,2.15290636271,0.176960369051,53.0745853212,3.63617417167,0.123039758907,0.904414181722,2.87908872837,0.0,0.0,0.0
16,1.3600438163,0.486329424839,83.3286427744,2.17415028169,0.177687932234,54.7227635344,3.66919824974,0.126888206158,0.887214482814,2.84317423582,0.0,0.0,0.0
17,1.40697221392,0.502659559211,81.7486800163,2.19387907004,0.178119607878,56.2361738096,3.69966979182,0.130472837744,0.870039406284,2.80766051348,0.0,0.0,0.0
18,1.45093623875,0.519113361142,80.2287464044,2.2122263774,0.178753754363,57.628290392,3.72788558512,0.134300994346,0.852890208746,2.7717030221,0.0,0.0,0.0
19,1.49219185968,0.535652272013,78.768177576,2.22931430463,0.178550761792,58.9112767817,3.7540975596,0.137170791672,0.836389762117,2.73796393317,0.0,0.0,0.0
20,1.5309720776,0.552243792381,77.3656077122,2.24525375765,0.178000506176,60.0960423388,3.77852126402,0.139549546697,0.82045750009,2.7057457161,0.0,0.0,0.0
21,1.56748814345,0.568860566575,76.0191996535,2.26014507875,0.177662163525,61.192330134,3.80134235767,0.142096626948,0.804900162027,2.67360904058,0.0,0.0,0.0
22,1.60193109596,0.585479596126,74.7268166929,2.27407882294,0.176991834522,62.2088188554,3.82272168531,0.144118375614,0.790027884069,2.64328159329,0.0,0.0,0.0
23,1.63447343332,0.602081568657,73.4861492167,2.2871365911,0.175983806578,63.1532280808,3.84279931049,0.145559489324,0.775871999319,2.61507086058,0.0,0.0,0.0
24,1.66527080236,0.618650289029,72.294806748,2.29939186524,0.175253289869,64.0324206483,3.86169776592,0.14724506127,0.762130444156,2.58683103719,0.0,0.0,0.0
25,1.69446363032,0.635172197902,71.1503838686,2.31091081092,0.174211398468,64.8524985701,3.87952470129,0.148356134866,0.749093989057,2.56082576488,0.0,0.0,0.0
26,1.72217865913,0.651635965409,70.0505065037,2.32175302849,0.173508680377,65.6188908346,3.8887236498,0.149827399836,0.741461921055,2.53982961294,0.0,0.0,0.0
27,1.7485303621,0.668032149257,68.9928635362,2.33197224434,0.171856123441,66.3364325525,3.89320425364,0.149734573978,0.737521044634,2.52719143699,0.0,0.0,0.0
28,1.773622233,0.684352905809,67.9752276686,2.341616938,0.170574453011,67.0094354692,3.89735369448,0.150042168062,0.733776648268,2.51408708387,0.0,0.0,0.0
29,1.79754795064,0.700591747121,66.9954683125,2.35073090729,0.169712920783,67.6417503817,3.90119304683,0.150866792813,0.73019607905,2.50007481782,0.0,0.0,0.0
30,1.82039242328,0.71674333603,66.0515587222,2.35303520654,0.170038213945,67.8196428918,3.89192918577,0.152006581036,0.735918312436,2.50139294057,0.0,0.0,0.0
31,1.84223272036,0.732803312611,65.1415790256,2.34486754712,0.173114701577,67.3233654421,3.8617994209,0.155153813413,0.755536963777,2.5226120516,0.0,0.0,0.0
32,1.86313890287,0.748768148067,64.2637162887,2.337122525,0.175387138899,66.8798624687,3.83277259313,0.157168371659,0.774029496142,2.54602244765,0.0,0.0,0.0
33,1.88317476041,0.764635020753,63.4162625698,2.32977054138,0.178338303258,66.4845465145,3.80480540057,0.160428325067,0.791010001347,2.56537908007,0.0,0.0,0.0
34,1.9023984655,0.780401711142,62.5976116024,2.32278465427,0.18045325366,66.1332442748,3.77785593358,0.162485943186,0.807000926835,2.58683780697,0.0,0.0,0.0
35,1.92086315371,0.796066512652,61.8062545954,2.31614030026,0.182481718261,65.8221589322,3.75188366976,0.164543011815,0.821859721522,2.60739874412,0.0,0.0,0.0
36,1.93861743815,0.811628155805,61.0407755044,2.3098150482,0.184424020547,65.5478355832,3.7268494691,0.16659382688,0.835664383777,2.6271454987,0.0,0.0,0.0
37,1.95570586587,0.827085743653,60.2998460321,2.30378838106,0.186280578072,65.3071296244,3.70271556775,0.168632997885,0.848487571407,2.64614972938,0.0,0.0,0.0
38,1.97216932292,0.842438696675,59.5822205374,2.29804150264,0.188051886431,65.0971779309,3.67944556917,0.170655395172,0.860396922076,2.66447325524,0.0,0.0,0.0
39,1.98804539422,0.857686705786,58.8867309801,2.29255716601,0.189738505684,64.9153726413,3.65700443171,0.172656107054,0.871455374215,2.68216971733,0.0,0.0,0.0
40,2.00336868329,0.872829691825,58.2122820051,2.28731952142,0.191341048771,64.7593373579,3.63535845299,0.174630404971,0.881721480293,2.69928590203,0.0,0.0,0.0
41,2.01817109734,0.887867771412,57.5578461838,2.28231398081,0.191971415273,64.6269055625,3.61447524957,0.175089422588,0.891341545778,2.71799797096,0.0,0.0,0.0
42,2.03248210098,0.902801227132,56.9224595024,2.27752709744,0.193392860713,64.5161010719,3.59432373381,0.176962361842,0.900172480556,2.73399447751,0.0,0.0,0.0
43,2.04632894278,0.917630482233,56.3052170761,2.27294645849,0.194732399893,64.4251203459,3.57487408691,0.178794899074,0.908364210747,2.74952320101,0.0,0.0,0.0
44,2.05973685758,0.932356078546,55.7052691291,2.26856058935,0.19599077254,64.3523164856,3.55609772933,0.180582866581,0.915960554269,2.76461197519,0.0,0.0,0.0
45,2.07272924796,0.946978658001,55.1218172031,2.26435886789,0.196220808307,64.2961847614,3.53796728792,0.180707691369,0.923061933052,2.78113157762,0.0,0.0,0.0
46,2.08532784644,0.961498946275,54.5541106347,2.26033144785,0.197304593887,64.2553495322,3.52045656159,0.182357725338,0.9295799035,2.79534693018,0.0,0.0,0.0
47,2.09755286115,0.975917738652,54.0014432731,2.25646919018,0.198309615882,64.2285524201,3.50354048519,0.183950827503,0.935617236709,2.80919109457,0.0,0.0,0.0
48,2.10942310705,0.990235888277,53.4631504083,2.25276360132,0.198245428423,64.2146416191,3.48719509164,0.183772372278,0.941249725619,2.82433871109,0.0,0.0,0.0
49,2.12095612377,1.00445429563,52.9386059357,2.24920677775,0.199081036925,64.2125622301,3.47139747361,0.185203344462,0.946416748239,2.83743200958,0.0,0.0,0.0
50,2.13216828173,1.01857389935,52.4272197276,2.24579135615,0.198820736483,64.2213475208,3.45612574484,0.184796714716,0.951230712606,2.85174371827,0.0,0.0,0.0
51,2.14307487849,1.03259566886,51.9284351746,2.24251046824,0.199490459937,64.2401110189,3.44135900054,0.186051205103,0.955643596991,2.86414875479,0.0,0.0,0.0
52,2.15369022512,1.04652059726,51.4417269385,2.23935770031,0.200085525001,64.2680393587,3.42707727879,0.187230740984,0.959720079715,2.87625639164,0.0,0.0,0.0
53,2.16402772513,1.06034969593,50.9665988404,2.23632705631,0.199545293549,64.3043858053,3.41326152143,0.186469809287,0.963508163382,2.88945395581,0.0,0.0,0.0
54,2.17409994537,1.07408398919,50.5025819335,2.23341292467,0.19997960703,64.34846439,3.39989353626,0.187454062639,0.966976040911,2.90094379011,0.0,0.0,0.0
55,2.18391868099,1.08772451031,50.0492326916,2.23061004802,0.200341657001,64.399644598,3.38695595922,0.188354387651,0.970172314309,2.9121645367,0.0,0.0,0.0
56,2.19349501399,1.1012722975,49.606131357,2.22791349591,0.200632195801,64.4573465509,3.37443221819,0.189168036673,0.973115590863,2.92312354236,0.0,0.0,0.0
57,2.20283936698,1.11472839103,49.1728803857,2.22531863971,0.199736123598,64.5210366404,3.36230649696,0.187907431753,0.975838737254,2.9350018081,1.0,614.00832594,1.41798872831
58,2.21196155172,1.12809383017,48.7491030303,2.22282113012,0.199872485919,64.5902235626,3.35056370111,0.188505997455,0.978324866169,2.94540807215,1.0,614.020536356,1.21733226827
59,2.22087081392,1.14136965117,48.3344420034,2.22041687627,0.199939634095,64.6644547211,3.33918942417,0.189010988509,0.980606892578,2.95557149783,1.0,614.030777566,1.09538432011
60,2.2295758737,1.1545568849,47.9285582609,2.21810202701,0.199938284893,64.7433129552,3.32816991577,0.18942031332,0.982698877633,2.96549702588,1.0,614.039038473,0.999355347505
61,2.23808496307,1.16765655554,47.5311298505,2.21587295353,0.199869145677,64.8264135699,3.31749205024,0.189732046109,0.984613940382,2.97518915511,1.0,614.045305814,0.917744720163
62,2.24640585981,1.18066967872,47.1418508651,2.21372623364,0.199732914166,64.9134016297,3.3071432971,0.189944434629,0.986364321526,2.9846519862,1.0,614.049564035,0.845699288062
63,2.25454591892,1.19359726054,46.760430454,2.21165863723,0.199530278349,65.0039494993,3.29711169235,0.190055907781,0.987961442766,2.99388926146,1.0,614.051795163,0.790168581268
64,2.26251210141,1.20644029657,46.3865919087,2.20966711302,0.199261916425,65.0977546025,3.28738581098,0.190065082788,0.989415961988,3.00290440075,1.0,614.051978683,0.849841947486
65,2.27031100052,1.21919977075,46.0200718213,2.2077487764,0.198928496717,65.1945373777,3.27795474107,0.189970771749,0.990737824591,3.0117005337,1.0,614.050091408,0.905158933689
66,2.27794886629,1.23187665502,45.6606192858,2.20590089815,0.198530677737,65.2940394176,3.26880805852,0.189771987821,0.991936311381,3.02028052931,1.0,614.046107344,0.956849916346
67,2.28543162777,1.2444719084,45.3079951724,2.20412089419,0.198069108157,65.3960217667,3.2599358035,0.189467950498,0.993020083135,3.02864702238,1.0,614.03999755,1.00544962745
68,2.29276491375,1.25698647669,44.9619714376,2.20240631603,0.197544426894,65.5002633703,3.25132845755,0.189058090321,0.993997222246,3.03680243792,1.0,614.031729991,1.05136281527
69,2.29995407196,1.26942129222,44.6223304844,2.20075484202,0.196957263199,65.606559657,3.24297692198,0.188542052734,0.994875271571,3.04474901318,1.0,614.02126938,1.09490400061
70,2.30700418655,1.28177727333,44.2888645735,2.19916426924,0.196308236711,65.7147212396,3.23487249745,0.187919700954,0.995661270696,3.05248881766,1.0,614.008577008,1.13632282211
71,2.31392009446,1.29405532427,43.9613752644,2.19763250604,0.196893308258,65.8245727299,3.22700686427,0.189578357997,0.996359861061,3.05948220768,1.0,614.042218521,1.17309173461
72,2.32070640065,1.30625633517,43.6396728941,2.19615756507,0.196134590541,65.935951653,3.21937206385,0.188764037496,0.996981322636,3.06685637775,1.0,614.025776271,1.2110874624
73,2.32736749195,1.31838118177,43.3235760992,2.19473755693,0.195315736326,66.0487074502,3.21196048113,0.187842852867,0.997529127469,3.07402886595,1.0,614.0070039,1.24745108752
74,2.33390755015,1.33043072545,43.0129113587,2.19337068418,0.194437328946,66.1627005677,3.20476482779,0.186815503238,0.998008625245,3.08100124887,1.0,613.985848991,1.28229957231
75,2.34033056415,1.34240581339,42.7075125685,2.19205523585,0.194843692341,66.2778016206,3.19777812626,0.188173554216,0.998423995775,3.08740086818,1.0,614.013764315,1.31394250688
76,2.34664034102,1.35430727834,42.4072206499,2.19078958231,0.19385980633,66.3938906227,3.19099369481,0.18695147311,0.998781683596,3.09401859114,1.0,613.988662238,1.34625365142
77,2.35284051656,1.36613593887,42.1118831749,2.18957217051,0.192817991107,66.5108562822,3.18440513312,0.185625003356,0.999085062311,3.1004401748,1.0,613.961040708,1.37729730073
78,2.35893456508,1.37789259956,41.8213540151,2.18840151954,0.193098067747,66.6285953542,3.17800630871,0.186758976952,0.9993378601,3.10641551962,1.0,613.98467824,1.40596261061
79,2.3649258083,1.38957805086,41.5354930213,2.18727621656,0.191953730504,66.7470120422,3.17179134415,0.18523862433,0.999544653511,3.11248903162,1.0,613.952920374,1.43484534773
80,2.37081742397,1.40119306947,41.2541657117,2.1861949129,0.19215561189,66.8660174512,3.1657546048,0.186234429749,0.99970840936,3.11819906263,1.0,613.973780016,1.46183146066
81,2.37661245368,1.41273841836,40.9772429865,2.18515632048,0.190910602856,66.9855290817,3.15989068725,0.184521409589,0.999832796378,3.12392827381,1.0,613.937756592,1.4887266356
82,2.38231381028,1.42421484711,40.7046008547,2.18415920853,0.191035831125,67.1054703655,3.15419440833,0.185376285744,0.999920672951,3.12937565127,1.0,613.955817429,1.5141703687
83,2.38792428476,1.43562309187,40.4361201832,2.18320240038,0.189691945868,67.2257702349,3.14866079478,0.183473049425,0.999975049493,3.13476409401,1.0,613.915377556,1.53921151775
84,2.39344655268,1.44696387573,40.1716864557,2.18228477061,0.189742015538,67.3463627284,3.14328507334,0.184185093891,0.999998569162,3.13995129472,1.0,613.930605203,1.56321930247
85,2.3988831803,1.45823790894,39.9111895453,2.18140524228,0.188300997065,67.467186626,3.13806266136,0.182095324867,0.99999377682,3.14500234584,1.0,613.885574577,1.55508268712
86,2.40423663013,1.46944588894,39.6545235067,2.1805627844,0.188277356963,67.5881851103,3.13298915802,0.182663522536,0.999963025118,3.1499317297,1.0,613.897920494,1.53242762206
87,2.40950926633,1.48058850076,39.4015863734,2.17975640949,0.188222968393,67.7093054565,3.12806033589,0.183178744367,0.999908509019,3.15475230684,1.0,613.909048916,1.5103362394
88,2.41470335965,1.49166641712,39.1522799699,2.1789851714,0.186644952934,67.8304987438,3.12327213294,0.180816351841,0.999832358346,3.15932254766,1.0,613.857499968,1.48943937081
89,2.41982109217,1.50268029878,38.9065097321,2.17824816315,0.186518881779,67.9517195903,3.11862064495,0.181186764887,0.999736383548,3.16388850375,1.0,613.865671772,1.46860946799
90,2.42486456162,1.51363079461,38.6641845433,2.17754451496,0.186362956549,68.0729259044,3.1141021184,0.181502750889,0.999622430012,3.16834687323,1.0,613.872616396,1.44830676939
91,2.42983578557,1.5245185419,38.4252165722,2.17687339243,0.186177445419,68.1940786586,3.10971294361,0.181763758706,0.999492184764,3.17269798087,1.0,613.87833446,1.4285219621
92,2.43473670529,1.53534416656,38.1895211249,2.17623399474,0.184425731593,68.3151416771,3.10544964829,0.179049217187,0.999347501757,3.17664987938,1.0,613.818047676,1.41057641255
93,2.43956918949,1.5461082834,37.9570165012,2.17562555305,0.184171062669,68.4360814412,3.10130889138,0.179166071089,0.999189352319,3.1807504831,1.0,613.820680615,1.39197350885
94,2.44433503768,1.55681149624,37.7276238637,2.17504732893,0.183887650094,68.5568669057,3.09728745728,0.179227417513,0.999019349114,3.18474508189,1.0,613.822061487,1.37386599061
95,2.44903598347,1.5674543982,37.5012671088,2.17449861291,0.183575746231,68.6774693321,3.09338225027,0.179232964831,0.998838786103,3.18863402249,1.0,613.822186307,1.35624818649
96,2.45367369763,1.57803757192,37.2778727474,2.17397872311,0.183235599844,68.7978621315,3.08959028926,0.179182478866,0.99864887388,3.19241765964,1.0,613.821050037,1.33911511494
97,2.45824979103,1.58856158978,37.0573697899,2.17348700395,0.182867456189,68.91802072,3.08590870278,0.179075783959,0.99845074478,3.19609635724,1.0,613.818646579,1.32246242173
98,2.46276581732,1.59902701405,36.839689641,2.17302282491,0.182471557074,69.037922383,3.08233472429,0.17891276383,0.998245457713,3.19967048927,1.0,613.814968757,1.30628632224
99,2.46722327555,1.60943439716,36.6247659953,2.1725855794,0.180437095506,69.1575461503,3.07886568764,0.175615167185,0.998034793016,3.20259504208,1.0,613.739102287,1.29309645462
100,2.4716236126,1.61978428186,36.4125347414,2.17217468367,0.179976037259,69.2768726792,3.07549902276,0.175314084198,0.997818156614,3.20592616035,1.0,613.732032726,1.27803238317
101,2.47596822551,1.63007720153,36.2029338686,2.17178957577,0.179487986096,69.3958841472,3.07223225158,0.174957735573,0.997597145574,3.20915419533,1.0,613.723633957,1.26343622023
102,2.48025846367,1.6403136802,35.9959033815,2.17142971457,0.178973170261,69.5145641494,3.06906298422,0.174546278253,0.997372569786,3.21227957466,1.0,613.713893531,1.24930591524
103,2.48449563087,1.6504942329,35.7913852155,2.17109457888,0.178431814924,69.6328976055,3.0659889152,0.174079929027,0.997145186276,3.21530274019,1.0,613.702797791,1.23563973154
104,2.48868098727,1.66061936578,35.5893231585,2.17078366652,0.177864142242,69.7508706725,3.06300782002,0.173558964364,0.996915702593,3.21822414856,1.0,613.690331847,1.22243620435
105,2.49281575131,1.67068957629,35.3896627756,2.17049649354,0.177270371427,69.8684706627,3.06011755175,0.172983720075,0.996684780006,3.2210442717,1.0,613.676479544,1.20969410002
106,2.49690110143,1.68070535345,35.1923513378,2.17023259343,0.176650718806,69.9856859679,3.05731603785,0.172354590838,0.99645303651,3.22376359741,1.0,613.661223427,1.19741237652
107,2.50093817772,1.6906671779,34.9973377544,2.16999151638,0.176005397882,70.1025059886,3.05460127719,0.17167202952,0.996221049665,3.22638262973,1.0,613.644544702,1.1855901451
108,2.50492808359,1.70057552219,34.8045725082,2.16977282854,0.177036897187,70.2189210677,3.0519713371,0.174202563309,0.995987761682,3.2297518858,1.0,613.705721376,1.17021229358
109,2.50887188723,1.71043085089,34.6140075939,2.16957611142,0.176350734365,70.3349224291,3.04942435065,0.173429696185,0.995756714628,3.23220417658,1.0,613.687227007,1.15914276857
110,2.51277062304,1.72023362079,34.425596459,2.16940096122,0.17563947479,70.4505021199,3.04695851402,0.17260384776,0.995526917727,3.23455745413,1.0,613.667281149,1.1485315392
111,2.51662529303,1.72998428103,34.239293949,2.1692469882,0.174903321708,70.5656529567,3.04457208398,0.171725681503,0.99529880929,3.23681228631,1.0,613.645860533,1.13837809161
112,2.52043686809,1.73968327332,34.0550562532,2.16911381617,0.174142475817,70.6803684756,3.04226337553,0.170795915639,0.995072798997,3.23896925885,1.0,613.622940381,1.12868189503
113,2.52420628924,1.74933103205,33.8728408537,2.16900108192,0.173357135324,70.794642885,3.0400307596,0.169815321618,0.994849269857,3.24102897564,1.0,613.598494354,1.1194423684
114,2.5279344688,1.75892798446,33.6926064777,2.16890843469,0.172547495995,70.9084710219,3.03787266089,0.168784722432,0.994628580055,3.24299205891,1.0,613.572494493,1.11065884807
115,2.53162229152,1.76847455077,33.5143130507,2.16883553568,0.171713751205,71.0218483107,3.03578755579,0.167704990816,0.99441106467,3.24485914938,1.0,613.544911149,1.10233055655
