,theta i [rad],r orb [AU],v orb [km s-1],ang orb [rad],r L1 [AU],v i [km s-1],ang i [rad],a p [AU],e p,theta p i [rad],flag impact,v imp [km s-1],ang imp [rad]
0,0.0,0.4662,85.3832642211,1.57079632679,0.22120000351,8.53832642211,1.57079632679,0.111614202151,0.98182667839,3.14159265359,1.0,611.374135017,0.844004318212
1,0.0629245450442,0.46659302896,85.3419437382,1.59757660114,0.221386485719,8.76938907097,1.83442869519,0.111765430903,0.982128348646,3.146507534,1.0,611.382932604,0.850743293712
2,0.125637837421,0.467769244667,85.2185799931,1.62425794506,0.221476332573,9.42498376994,2.07505403934,0.111979535257,0.983049098106,3.15113346213,1.0,611.395347067,0.872434105019
3,0.187933317747,0.469720120703,85.0149401433,1.65074365758,0.222400020626,10.4155009805,2.28083485076,0.112732573008,0.984455848826,3.15524585535,1.0,611.438634068,0.904665239617
4,0.249613552387,0.472431730848,84.7338851851,1.67694137164,0.223210991472,11.6416816002,2.45140401631,0.113540906025,0.986322390251,3.15856340084,1.0,611.484457301,0.949652883024
5,0.310494166783,0.475885155788,84.3792511109,1.70276491972,0.224366278181,13.020276618,2.59203542791,0.114640157781,0.988490534725,3.16090828824,1.0,611.545730024,1.00431372538
6,0.370407092273,0.480057014583,83.9556965764,1.72813587124,0.225372115495,14.4895487697,2.70905226694,0.115772725173,0.990838435382,3.16207501465,1.0,611.60763655,1.06854073369
7,0.429203009374,0.48492008851,83.4685287718,1.75298468577,0.227169774744,16.0057952227,2.8079195615,0.117435942877,0.993172247782,3.16202919797,1.0,611.696373343,1.13873056927
8,0.486752935516,0.490444001821,82.9235197591,1.77725145765,0.228775684092,17.5383836591,2.8928558851,0.119110797016,0.995373719213,3.16060384425,1.0,611.783214264,1.21612492856
9,0.542948973715,0.496595924482,82.3267247541,1.80088626046,0.230651163697,19.0657513475,2.96698483106,0.121044062691,0.99727949321,3.15780215619,1.0,611.88045118,1.29890840724
10,0.597704294857,0.503341265337,81.6843120209,1.82384912648,0.232776444617,20.5726282599,3.03259435435,0.123228995231,0.998758327783,3.15361382447,1.0,611.98665587,1.38666339551
11,0.650952462153,0.510644328909,81.0024116604,1.8461097136,0.234620370947,22.0481910539,3.09136664122,0.125367102911,0.999696802602,3.14803951145,1.0,612.086983801,1.47940507312
12,0.702646236292,0.518468916236,80.2869878647,1.86764672622,0.236658487918,23.4848350072,3.14455203492,0.12772301459,0.999998806494,3.14115734252,1.0,612.193624163,1.56501733887
13,0.752755998166,0.526778855695,79.5437368101,1.88844715581,0.239397001127,24.8773389852,3.19309332766,0.130601565969,0.999594397644,3.13300535687,1.0,612.318675867,1.46289235968
14,0.801267927541,0.535538456834,78.7780101602,1.90850540747,0.241233542785,26.2222796767,3.23771281403,0.133052628492,0.998437942929,3.1237063526,1.0,612.420872157,1.35592473171
15,0.848182056434,0.54471288487,77.9947626026,1.9278223691,0.243730393618,27.5176066303,3.27897303248,0.136009222738,0.99649875528,3.11327466134,1.0,612.539223801,1.24239336652
16,0.893510300419,0.554268458537,77.1985206944,1.94640447223,0.246341540838,28.7623242988,3.31731932454,0.139149445687,0.993767369084,3.10180218038,1.0,612.659395021,1.12088954217
17,0.937274543319,0.564172875947,76.393369794,1.96426278066,0.248484553704,29.956247905,3.35310989328,0.142096045376,0.99026829744,3.08948088703,1.0,612.767306253,0.990158435319
18,0.979504834749,0.57439537615,75.5829555749,1.98141213456,0.251262045177,31.0998124209,3.38663724724,0.14556388914,0.985990511215,3.07617399893,1.0,612.888687505,0.842892815116
19,1.02023773723,0.584906844505,74.7704967777,1.99787036756,0.253518185637,32.1939211738,3.41814366667,0.14878832764,0.981012665026,3.0622249932,1.0,612.996452604,0.89778673546
20,1.05951484434,0.595679870505,73.9588061351,2.01365760651,0.255802470725,33.2398250047,3.4478324864,0.152128637444,0.975357881406,3.04758512253,1.0,613.103254127,1.1181929152
21,1.0973814783,0.606688766451,73.1503168209,2.02879565767,0.258100830406,34.2390255704,3.47587642307,0.155574785663,0.969074482797,3.03232069311,0.0,0.0,0.0
22,1.13388556536,0.617909554762,72.3471122208,2.04330747831,0.259781798666,35.1931980563,3.50242379359,0.158655228878,0.962286303338,3.01680146504,0.0,0.0,0.0
23,1.16907668097,0.629319930926,71.550957272,2.05721672943,0.262059154314,36.1041296629,3.52760321398,0.162261815093,0.9549193063,3.00051484982,0.0,0.0,0.0
24,1.20300525181,0.64089920819,70.7633300256,2.07054740339,0.264314792488,36.9736709789,3.55152719219,0.165943737101,0.947088599165,2.98377890861,0.0,0.0,0.0
25,1.23572189968,0.652628249147,69.9854524458,2.08332351909,0.265885586944,37.8036978991,3.57429490805,0.16916209787,0.938963190349,2.96709751432,0.0,0.0,0.0
26,1.26727691091,0.664489388529,69.218319758,2.09556887663,0.268057284843,38.5960821615,3.59599438953,0.172940787237,0.930388081397,2.94966260546,0.0,0.0,0.0
27,1.29771981517,0.676466350677,68.4627279021,2.10730686384,0.269503114699,39.3526689026,3.61670423665,0.176185469292,0.921657500655,2.93248611447,0.0,0.0,0.0
28,1.32709905826,0.688544164464,67.719298835,2.11856030708,0.270868729412,40.0752599056,3.63649500249,0.179412651832,0.912710973206,2.9151628927,0.0,0.0,0.0
29,1.35546175432,0.70070907781,66.9885035708,2.12935135954,0.272848684027,40.765601435,3.65543031212,0.183241795743,0.903425546542,2.89705120036,0.0,0.0,0.0
30,1.38285350486,0.71294847344,66.2706829506,2.13970142074,0.274046264174,41.4253757443,3.67356777884,0.186423647316,0.894176035856,2.87950825552,0.0,0.0,0.0
31,1.40931827285,0.725250787093,65.5660662067,2.14963108183,0.275145197648,42.0561955019,3.69095976228,0.18955079308,0.884847827433,2.86195181999,0.0,0.0,0.0
32,1.43489830162,0.737605428787,64.8747874505,2.1591600918,0.276140575117,42.6596005013,3.70765400137,0.19261060611,0.875479742181,2.84442439513,0.0,0.0,0.0
33,1.45963407118,0.750002708367,64.1969001901,2.16830734087,0.277028031628,43.2370561814,3.72369414858,0.195590532117,0.866107053905,2.82696745314,0.0,0.0,0.0
34,1.48356428274,0.762433764784,63.5323900884,2.17709085703,0.278566895277,43.7899534982,3.73912022347,0.19925817835,0.856518494325,2.80857628196,0.0,0.0,0.0
35,1.50672586683,0.774890499948,62.8811860909,2.18552781329,0.279239824075,44.3196098482,3.75396900156,0.202072430656,0.847215346178,2.79130198787,0.0,0.0,0.0
36,1.52915400915,0.787365516986,62.2431700968,2.19363454301,0.27979455739,44.8272707625,3.76058738973,0.204770383096,0.841747722933,2.77790968726,0.0,0.0,0.0
37,1.55088218959,0.799852062588,61.6181853458,2.20142656119,0.280228454696,45.3141121482,3.76237825781,0.207340035086,0.838729908003,2.76708890142,0.0,0.0,0.0
38,1.57194223224,0.812343974065,61.0060436284,2.20891859049,0.280539214636,45.7812429354,3.76405244097,0.209769649287,0.835918449479,2.75666730253,0.0,0.0,0.0
39,1.5923643617,0.82483562998,60.4065315073,2.21612459018,0.280724843439,46.2297079583,3.76561110963,0.212047804239,0.833309286558,2.74666823218,0.0,0.0,0.0
40,1.61217726478,0.837321904925,59.8194156331,2.22305778718,0.281621786271,46.6604909954,3.76705591132,0.215140205738,0.830634414864,2.73569882032,0.0,0.0,0.0
41,1.63140815478,0.849798127585,59.2444472987,2.22973070824,0.281564749443,47.0745178661,3.7683888604,0.217115908778,0.828414668993,2.72655132985,0.0,0.0,0.0
42,1.65008283822,0.862260042811,58.6813662875,2.23615521292,0.281378156609,47.4726595528,3.7696122481,0.218908278412,0.826380725586,2.71788508809,0.0,0.0,0.0
43,1.66822578086,0.874703776083,58.1299041688,2.2423425262,0.281936556979,47.8557352576,3.77072856922,0.221587416792,0.824266396264,2.70813397037,0.0,0.0,0.0
44,1.68586017428,0.887125801627,57.589787051,2.24830327102,0.281500384057,48.224515408,3.77174046253,0.22301752172,0.822584827099,2.70042099163,0.0,0.0,0.0
45,1.70300800064,0.899522912818,57.0607379149,2.2540474999,0.281832508804,48.57972455,3.77265066244,0.225386190287,0.820813076916,2.69153924208,0.0,0.0,0.0
46,1.71969009583,0.911892195031,56.5424785681,2.2595847257,0.281143944631,48.9220441251,3.77346195986,0.226418747873,0.819456049691,2.68483065307,0.0,0.0,0.0
47,1.73592621116,0.924231001306,56.0347312523,2.2649239514,0.281247476517,49.2521151358,3.77417717077,0.228443052131,0.817999018108,2.6768646643,0.0,0.0,0.0
48,1.75173507187,0.936536929413,55.5372199999,2.27007369846,0.28124232582,49.5705406598,3.77479911091,0.230301907872,0.81669053207,2.66934317448,0.0,0.0,0.0
49,1.76713443403,0.948807801531,55.0496717227,2.27504203419,0.28017848464,49.877888247,3.77533057577,0.230697392033,0.815767614567,2.66418400403,0.0,0.0,0.0
50,1.78214113842,0.961041645297,54.5718171119,2.27983659761,0.279943066579,50.1746921722,3.77577432471,0.232168320707,0.814731761583,2.65762734137,0.0,0.0,0.0
51,1.79677116163,0.973236676369,54.1033913667,2.28446462407,0.279598529405,50.4614555527,3.77613306862,0.23345388759,0.813823833804,2.65153481269,0.0,0.0,0.0
52,1.81103966534,0.985391283075,53.6441347504,2.28893296868,0.279144882777,50.7386523516,3.77640946044,0.234548398132,0.813037276441,2.64591088153,0.0,0.0,0.0
53,1.82496104196,0.997504011564,53.1937930522,2.29324812825,0.278582206244,51.0067292371,3.77660608801,0.235446716355,0.812365764459,2.64075899246,0.0,0.0,0.0
54,1.83854895891,1.00957355309,52.7521179084,2.29741626228,0.277910642579,51.2661073428,3.77672546885,0.236144296689,0.811803244587,2.63608163264,0.0,0.0,0.0
55,1.85181639938,1.02159873155,52.3188670635,2.30144321244,0.278153012853,51.5171838964,3.77677004653,0.238132340061,0.811118880977,2.62966066133,0.0,0.0,0.0
56,1.8647757015,1.03357849273,51.8938045329,2.30533452112,0.277276317252,51.7603337538,3.77674218829,0.238448360148,0.81075960741,2.6258870435,0.0,0.0,0.0
57,1.87743859513,1.04551189422,51.4767007069,2.30909544889,0.276291436422,51.9959108289,3.77664418372,0.238552663239,0.810492692275,2.62259100738,0.0,0.0,0.0
58,1.88981623603,1.057398096,51.0673324122,2.31273099073,0.276257165153,52.2242494209,3.77647824429,0.240036909029,0.810097996088,2.61740525081,0.0,0.0,0.0
59,1.90191923878,1.06923635227,50.6654829088,2.31624589149,0.275068816309,52.4456654639,3.7762465035,0.239740033661,0.810002931641,2.61501445835,0.0,0.0,0.0
60,1.91375770687,1.08102600338,50.2709418726,2.3196446602,0.274855465303,52.6604576797,3.77595101765,0.240883358573,0.809777368398,2.61063665258,0.0,0.0,0.0
61,1.92534126184,1.09276646911,49.8835053241,2.32293158374,0.274558947692,52.8689086648,3.77559376693,0.241869842574,0.809631898554,2.60663807955,0.0,0.0,0.0
62,1.93667906993,1.1044572418,49.5029755552,2.32611073939,0.273074017768,53.071285892,3.77517665693,0.240969380822,0.809761671859,2.60557199693,0.0,0.0,0.0
63,1.94777986755,1.11609788062,49.1291610198,2.32918600684,0.272600488405,53.2678426524,3.77470152038,0.241600039174,0.809758593043,2.60237424611,0.0,0.0,0.0
64,1.95865198521,1.12768800614,48.761876211,2.33216107939,0.272044859405,53.4588189318,3.77417011902,0.242067031954,0.809823019871,2.59955112183,0.0,0.0,0.0
65,1.9693033696,1.13922729505,48.4009415379,2.33503947431,0.271407508816,53.6444422226,3.77358414568,0.242368622442,0.809951199747,2.59710050344,0.0,0.0,0.0
66,1.97974160495,1.1507154759,48.0461831728,2.33782454283,0.270688830774,53.8249282898,3.77294522642,0.242503478392,0.810139652276,2.59501990636,0.0,0.0,0.0
67,1.98997393241,1.16215232454,47.6974329129,2.34051947924,0.269889233653,54.0004818754,3.77225492273,0.24247067775,0.810385170812,2.59330651217,0.0,0.0,0.0
68,2.00000726879,1.17353766039,47.3545280213,2.34312732959,0.269009138514,54.171297363,3.77151473375,0.24226971239,0.810684822323,2.59195719637,0.0,0.0,0.0
69,2.00984822405,1.18487134296,47.0173110674,2.34565099989,0.269235035047,54.3375593968,3.77072609853,0.24383927779,0.810857117224,2.58811338753,0.0,0.0,0.0
70,2.01950311743,1.19615326833,46.685629776,2.34809326359,0.26820654383,54.4994434541,3.76989039825,0.243327223244,0.811258242806,2.58744180373,0.0,0.0,0.0
71,2.02897799297,1.20738336625,46.3593368634,2.35045676886,0.267098827969,54.6571163854,3.76900895842,0.242646487571,0.811705717732,2.58712410263,0.0,0.0,0.0
72,2.0382786341,1.21856159746,46.0382898769,2.35274404529,0.267132127184,54.8107369192,3.76808305101,0.24382292277,0.812026931292,2.58418216505,0.0,0.0,0.0
73,2.04741057697,1.2296879509,45.7223510438,2.35495751015,0.265878481108,54.9604561271,3.76711389663,0.242829394561,0.812560910343,2.58452203228,0.0,0.0,0.0
74,2.05637912344,1.24076244146,45.4113871127,2.355289506,0.265788956674,55.0253117695,3.7622407729,0.243154441131,0.815301000525,2.58739332561,0.0,0.0,0.0
75,2.06518935313,1.25178510792,45.1052691981,2.35321683222,0.266897130371,54.9839388903,3.75232347205,0.244708280962,0.820877739248,2.59424974457,0.0,0.0,0.0
76,2.07384613462,1.26275601074,44.8038726375,2.35121133424,0.267972251788,54.9478022736,3.74262695182,0.246250176934,0.826258322659,2.60096747086,0.0,0.0,0.0
77,2.0823541362,1.27367523027,44.5070768413,2.34927098802,0.267739543173,54.9166592537,3.7331463962,0.245624591242,0.831592319204,2.61045195314,0.0,0.0,0.0
78,2.09071783604,1.28454286522,44.2147651474,2.34739385544,0.268738202314,54.8902788249,3.72387709805,0.24711133117,0.836594135914,2.61687024391,0.0,0.0,0.0
79,2.09894153143,1.29535903082,43.9268246893,2.34557807997,0.269704388085,54.8684410507,3.71481445808,0.248583116707,0.841420793647,2.62316390299,0.0,0.0,0.0
80,2.10702934787,1.30612385752,43.6431462563,2.34382188256,0.270638282083,54.8509365032,3.70595398328,0.250039073237,0.84607865781,2.62933661215,0.0,0.0,0.0
81,2.11498524742,1.31683748963,43.3636241646,2.34212355774,0.270221912592,54.8375657312,3.69729128559,0.249226496802,0.850693701672,2.63815862528,0.0,0.0,0.0
82,2.12281303676,1.32750008412,43.0881561276,2.34048146999,0.271081103577,54.8281387562,3.68882208027,0.250618963918,0.855025430428,2.64406938078,0.0,0.0,0.0
83,2.1305163745,1.33811180938,42.8166431384,2.33889405029,0.271908611236,54.822474595,3.68054218446,0.25199277916,0.859206296405,2.64987012534,0.0,0.0,0.0
84,2.13809877842,1.34867284424,42.5489893476,2.33735979286,0.271354601627,54.8204008068,3.67244751548,0.251026632644,0.863348558115,2.65824223164,0.0,0.0,0.0
85,2.14556363202,1.35918337695,42.2851019502,2.33587725213,0.272108789518,54.8217530639,3.66453408912,0.252331175145,0.867237799651,2.66380431505,0.0,0.0,0.0
86,2.152914191,1.36964360437,42.024891073,2.33444503982,0.27283191453,54.8263747448,3.65679801793,0.253614388897,0.87099211066,2.66926553056,0.0,0.0,0.0
87,2.16015358905,1.38005373101,41.7682696716,2.33306182221,0.272142733101,54.8341165495,3.64923550953,0.252486920104,0.874711811423,2.67722758508,0.0,0.0,0.0
88,2.16728484359,1.3904139683,41.5151534262,2.33172631761,0.272793937091,54.844836133,3.64184286474,0.253695534349,0.878205195958,2.68246978774,0.0,0.0,0.0
89,2.17431086114,1.40072453403,41.2654606399,2.33043729384,0.273414704214,54.8583977606,3.63461647575,0.254880292272,0.881577813241,2.68761884772,0.0,0.0,0.0
90,2.18123444227,1.41098565143,41.0191121487,2.32919356602,0.274005226985,54.8746719783,3.62755282445,0.25604042845,0.884833953415,2.69267681648,0.0,0.0,0.0
91,2.18805828644,1.42119754875,40.7760312263,2.32799399431,0.273143077832,54.893535303,3.62064848041,0.254690200007,0.888058697036,2.70015159765,0.0,0.0,0.0
92,2.19478499656,1.43136045864,40.5361434965,2.3268374819,0.273663516516,54.9148699275,3.61390009917,0.255769278385,0.891089534956,2.70501185217,0.0,0.0,0.0
93,2.20141708321,1.44147461761,40.2993768496,2.32572297306,0.27415433709,54.9385634406,3.60730442033,0.256821403247,0.894016018538,2.70978731728,0.0,0.0,0.0
94,2.20795696878,1.45154026565,40.0656613582,2.32464945126,0.273162738101,54.9645085632,3.60085826568,0.255295794923,0.896914993424,2.71692335484,0.0,0.0,0.0
95,2.21440699127,1.46155764564,39.8349292024,2.32361593743,0.273584870032,54.9926028969,3.59455853749,0.256262637163,0.899639581884,2.72151493241,0.0,0.0,0.0
96,2.22076940796,1.47152700304,39.607114592,2.32262148834,0.273978006004,55.0227486857,3.58840221656,0.257200368384,0.902270606583,2.72602717478,0.0,0.0,0.0
97,2.2270463989,1.48144858544,39.382153695,2.32166519498,0.274342336082,55.0548525911,3.58238636047,0.258108313239,0.904811335961,2.7304615414,0.0,0.0,0.0
98,2.23324007022,1.49132264235,39.1599845664,2.32074618109,0.273185234237,55.0888254774,3.57650810175,0.256344282889,0.907327993525,2.73718931845,0.0,0.0,0.0
99,2.23935245719,1.50114942467,38.9405470841,2.31986360175,0.273482683434,55.1245822095,3.57076464614,0.257161964233,0.909694021003,2.74145518911,0.0,0.0,0.0
100,2.24538552727,1.51092918457,38.7237828826,2.31901664203,0.273751939814,55.1620414597,3.56515327082,0.25794793985,0.911979005166,2.74564777558,0.0,0.0,0.0
101,2.25134118288,1.52066217509,38.509635292,2.31820451572,0.27399319018,55.2011255259,3.55967132264,0.258701594952,0.914185748585,2.74976831192,0.0,0.0,0.0
102,2.25722126416,1.53034865001,38.2980492772,2.31742646412,0.272674739929,55.241760158,3.55431621644,0.256693635364,0.916372099093,2.75612322656,0.0,0.0,0.0
103,2.26302755142,1.53998886348,38.0889713837,2.31668175489,0.272850885215,55.2838743934,3.54908543338,0.257352970583,0.918427477665,2.76008840016,0.0,0.0,0.0
104,2.26876176764,1.54958306988,37.8823496802,2.31596968093,0.272999625425,55.3274004015,3.54397651924,0.257978332652,0.920412555367,2.76398546106,0.0,0.0,0.0
105,2.2744255808,1.55913152363,37.6781337075,2.31528955941,0.273121143285,55.3722733355,3.53898708282,0.258569176601,0.922329737374,2.76781547257,0.0,0.0,0.0
106,2.28002060602,1.56863447894,37.4762744272,2.31464073069,0.27321562047,55.4184311915,3.53411479433,0.259124972173,0.924181340129,2.77157946508,0.0,0.0,0.0
107,2.28554840772,1.57809218975,37.2767241724,2.31402255745,0.27170356573,55.465814676,3.5293573838,0.256808085436,0.926016326848,2.7775142376,0.0,0.0,0.0
108,2.29101050158,1.58750490945,37.0794366029,2.31343442377,0.27173508013,55.5143670782,3.52471263958,0.257265676912,0.927741111567,2.78113669716,0.0,0.0,0.0
109,2.29640835647,1.59687289082,36.8843666587,2.31287573426,0.271740137116,55.5640341506,3.52017840677,0.257686926862,0.929406885381,2.78469648348,0.0,0.0,0.0
110,2.30174339623,1.60619638585,36.6914705173,2.31234591327,0.271718913669,55.6147639942,3.51575258582,0.258071386299,0.931015638022,2.78819450628,0.0,0.0,0.0
111,2.30701700145,1.61547564566,36.5007055522,2.31184440413,0.27167158561,55.6665069498,3.511433131,0.258418623683,0.932569286196,2.79163165219,0.0,0.0,0.0
112,2.31223051113,1.62471092038,36.3120302923,2.31137066834,0.271598327592,55.7192154956,3.50721804903,0.258728225451,0.93406967632,2.79500878634,0.0,0.0,0.0
113,2.31738522418,1.63390245903,36.1254043852,2.31092418497,0.27149931308,55.7728441484,3.50310539771,0.258999796507,0.935518587141,2.79832675374,0.0,0.0,0.0
114,2.32248240103,1.64305050943,35.9407885584,2.3105044499,0.269730019147,55.8273493709,3.49909328452,0.256247804063,0.936955274942,2.80374355012,0.0,0.0,0.0
115,2.32752326498,1.65215531812,35.7581445854,2.31011097523,0.269570893335,55.8826894827,3.49517986534,0.256417979006,0.938304748607,2.80693604907,0.0,0.0,0.0
116,2.33250900365,1.66121713032,35.5774352495,2.30974328864,0.269386567274,55.9388245768,3.49136334315,0.256549377998,0.939607791803,2.81007219082,0.0,0.0,0.0
117,2.33744077025,1.67023618979,35.3986243133,2.30940093281,0.269177209366,55.9957164385,3.48764196676,0.256641701265,0.940865933724,2.81315274784,0.0,0.0,0.0
118,2.34231968485,1.6792127388,35.2216764856,2.30908346491,0.268942986802,56.05332847,3.4840140296,0.256694669802,0.942080647689,2.8161784791,0.0,0.0,0.0
119,2.34714683558,1.6881470181,35.0465573912,2.30879045597,0.268684065558,56.1116256175,3.48047786852,0.256708025787,0.943253353202,2.8191501311,0.0,0.0,0.0
120,2.35192327977,1.69703926683,34.8732335421,2.30852149047,0.26840061039,56.1705743026,3.47703186264,0.256681532968,0.944385417925,2.82206843887,0.0,0.0,0.0
121,2.3566500451,1.7058897225,34.7016723081,2.30827616578,0.268092784844,56.2301423562,3.47367443215,0.256614977059,0.945478159589,2.82493412692,0.0,0.0,0.0
122,2.36132813058,1.71469862091,34.5318418912,2.30805409175,0.267760751248,56.2902989564,3.47040403731,0.256508166072,0.946532847819,2.82774791011,0.0,0.0,0.0
