,theta i [rad],r orb [AU],v orb [km s-1],ang orb [rad],r L1 [AU],v i [km s-1],ang i [rad],a p [AU],e p,theta p i [rad],flag impact,v imp [km s-1],ang imp [rad]
0,0.0,0.50895,81.1593772892,1.57079632679,0.241483787294,8.11593772892,1.57079632679,0.121833854462,0.982074591331,3.14159265359,1.0,611.919282942,0.810815761551
1,0.0547955931084,0.509269254545,81.1297443926,1.59368190131,0.241635265426,8.27598500029,1.79705017701,0.121954926682,0.98229598961,3.14574347916,1.0,611.925191035,0.816176844066
2,0.109454153149,0.510225263305,81.0411658557,1.61650367535,0.24208886718,8.73660798288,2.00847245918,0.122318008804,0.982949261814,3.14972542563,1.0,611.942838277,0.832071299778
3,0.163840926493,0.51181280154,80.8945917223,1.63919892616,0.24232978843,9.44863368964,2.19588983742,0.12266017268,0.984035849232,3.15334984924,1.0,611.959372728,0.859773150781
4,0.217825625625,0.51402329242,80.6915713513,1.66170704192,0.243376397225,10.3524287242,2.35692634399,0.123503360694,0.985433850945,3.1565077064,1.0,611.999725326,0.894770465646
5,0.271284428159,0.516844996615,80.4342046547,1.68397046585,0.244195036959,11.3927535805,2.49363538201,0.124317764561,0.987137868014,3.15900645248,1.0,612.038178245,0.939597824984
6,0.324101718803,0.520263264451,80.1250781862,1.70593551756,0.245289290373,12.5248131389,2.6097969884,0.125362731366,0.989031446058,3.16075616714,1.0,612.08678218,0.99148425695
7,0.376171514583,0.524260838508,79.7671899057,1.72755306383,0.246649246879,13.7145117153,2.70930287136,0.126634925871,0.991023217856,3.16166244404,1.0,612.14486722,1.04954754334
8,0.427398545258,0.528818193477,79.3638667972,1.7487790251,0.247734652746,14.9365423849,2.79551001072,0.12784892682,0.993031858645,3.16160910368,1.0,612.199212431,1.11407332427
9,0.47769897036,0.533913898673,78.9186796135,1.76957470934,0.249587381615,16.1722266406,2.87110660938,0.129559141766,0.994928159019,3.16063199759,1.0,612.274034992,1.18220170349
10,0.52700074787,0.539524989895,78.4353586346,1.7899069805,0.251130254122,17.4077413477,2.93817806575,0.131190616835,0.996644563967,3.15861829676,1.0,612.34358632,1.25538111105
11,0.57524367671,0.545627337759,77.9177138347,1.80974827222,0.252878339302,18.632812947,2.99832457333,0.133019655778,0.998080976373,3.15560177382,1.0,612.419522472,1.33225783407
12,0.622379154016,0.552196001892,77.3695620825,1.82907646664,0.254817177643,19.8397920273,3.05277400231,0.135040636731,0.99916056091,3.15158796418,1.0,612.50102486,1.41265991558
13,0.668369691659,0.559205561961,76.7946632611,1.84787465966,0.256932288836,21.0230014738,3.10247410391,0.137248033272,0.999816777797,3.14659452809,1.0,612.587290664,1.49655517445
14,0.713188246793,0.566630419618,76.196666342,1.86613083861,0.2592093147,22.1782724687,3.14816312343,0.139636449116,0.999994242693,3.14064860098,1.0,612.677545686,1.55753519283
15,0.756817413604,0.57444506666,75.5790658371,1.88383749508,0.261634143107,23.3026075903,3.19042238881,0.14220064767,0.999649030201,3.13378432982,1.0,612.77105449,1.46614765488
16,0.799248525481,0.582624317375,74.9451684165,1.90099119643,0.263609804912,24.3939303492,3.22971505686,0.144584608396,0.998751013375,3.1260750508,1.0,612.855003156,1.37083966065
17,0.840480711773,0.591143504937,74.2980690258,1.91759213653,0.265689126517,25.4508944486,3.26641460545,0.147110388598,0.997281684074,3.11756684383,1.0,612.940965507,1.27089467018
18,0.880519942347,0.599978642281,73.6406355986,1.93364368202,0.268458915702,26.4727351757,3.30082584152,0.150146581497,0.995223128268,3.10823413526,1.0,613.040456326,1.16431692665
19,0.919378090688,0.609106549688,72.9755012208,1.94915192828,0.270714025794,27.4591514133,3.33320047588,0.152948560785,0.992589606392,3.09825294906,1.0,613.128754149,1.0510923506
20,0.957072039121,0.618504952134,72.3050625252,1.9641252762,0.273033721339,28.410210578,3.36374875063,0.155872543413,0.989384096798,3.08761815834,1.0,613.217498964,0.927928142813
21,0.993622839548,0.628152548978,71.6314831746,1.97857403619,0.275406226426,29.3262711329,3.39264818493,0.158911996869,0.985621696145,3.07637668285,1.0,613.306273732,0.790223001627
22,1.0290549424,0.638029059875,70.9567012766,1.99251006509,0.277820465278,30.2079190188,3.42005020845,0.162060543139,0.981323084151,3.06457337105,1.0,613.394710674,0.942311898889
23,1.06339549802,0.648115249912,70.2824397485,2.00594643805,0.2796172938,31.0559152691,3.4460852342,0.164860712899,0.976558615851,3.05246220255,1.0,613.470514192,1.1501509572
24,1.09667373465,0.658392937814,69.6102187113,2.01889715709,0.282074255454,31.8711528345,3.47086657237,0.168191272706,0.971276519083,3.03969338766,0.0,0.0,0.0
25,1.12892040953,0.668844989573,68.9413692156,2.0313768946,0.284543668071,32.6546209881,3.49449347473,0.171611754411,0.965544226692,3.02648459674,0.0,0.0,0.0
26,1.16016733228,0.679455300804,68.2770476497,2.04340077133,0.286337022522,33.4073761029,3.51705352444,0.174610170192,0.959471559126,3.0131877893,0.0,0.0,0.0
27,1.19044695528,0.690208770136,67.6182503541,2.05498416622,0.288105166201,34.1305177644,3.53862452816,0.177647119124,0.953039573611,2.99959670458,0.0,0.0,0.0
28,1.21979202542,0.701091265581,66.9658280784,2.06614255533,0.290542330188,34.8251693531,3.55927602683,0.181260388475,0.946183868309,2.98535037756,0.0,0.0,0.0
29,1.24823529304,0.712089586332,66.3204999611,2.0768913778,0.292248983314,35.4924624219,3.57907051373,0.184370974304,0.939129086132,2.97123434761,0.0,0.0,0.0
30,1.27580926993,0.723191420766,65.6828668817,2.08724592498,0.293909630423,36.1335242069,3.59806442362,0.187496441826,0.931822171583,2.95692481528,0.0,0.0,0.0
31,1.30254603242,0.734385302557,65.0534240146,2.09722125074,0.296253534446,36.7494677981,3.61630894405,0.191240957891,0.924158449434,2.94191995857,0.0,0.0,0.0
32,1.32847706255,0.745660565466,64.4325725316,2.10683209978,0.297816386015,37.3413844989,3.63385068565,0.194395374506,0.916435811406,2.92726487637,0.0,0.0,0.0
33,1.35363312403,0.757007298336,63.8206303786,2.116092852,0.299317204082,37.9103380368,3.65073224139,0.197541295277,0.908559986807,2.91250204151,0.0,0.0,0.0
34,1.37804416601,0.768416300124,63.2178421661,2.12501748004,0.300751528939,38.4573602611,3.66699265599,0.200670726918,0.900561014288,2.89765822536,0.0,0.0,0.0
35,1.40173925208,0.77987903613,62.624388154,2.13361951843,0.302115306377,38.9834480936,3.68266782362,0.203775698398,0.892467201681,2.88275923087,0.0,0.0,0.0
36,1.42474650939,0.79138759529,62.0403923933,2.1419120422,0.303404857969,39.4895614755,3.6977908268,0.206848263064,0.884305061248,2.86783003393,0.0,0.0,0.0
37,1.44709309624,0.802934649562,61.4659300305,2.14990765383,0.304616853179,39.9766221568,3.71239222807,0.209880503112,0.876099276276,2.85289490882,0.0,0.0,0.0
38,1.46880518319,0.814513414711,60.9010338723,2.15761847652,0.305748282968,40.4455131213,3.72650032163,0.212864535908,0.867872694365,2.83797753923,0.0,0.0,0.0
39,1.48990794598,0.826117612991,60.3457002474,2.16505615288,0.30679643505,40.8970785364,3.73156360705,0.215792522369,0.86344364343,2.82680537766,0.0,0.0,0.0
40,1.51042556914,0.837741438318,59.7998941956,2.17223184836,0.307758870956,41.3321241318,3.7327166428,0.21865667762,0.86081096803,2.81744589702,0.0,0.0,0.0
41,1.53038125594,0.849379522753,59.2635541009,2.17915625771,0.308633404413,41.751417869,3.73378708343,0.221449283242,0.858326333695,2.80830917129,0.0,0.0,0.0
42,1.54979724584,0.861026905642,58.7365957565,2.18583961457,0.309418081483,42.1556908774,3.73477423771,0.224162701744,0.855989128391,2.79941079896,0.0,0.0,0.0
43,1.56869483586,0.872679004316,58.2189159651,2.19229170295,0.310111161997,42.5456385534,3.73567792282,0.226789392589,0.853798058664,2.79076537854,0.0,0.0,0.0
44,1.58709440564,0.88433158662,57.7103957072,2.1985218703,0.310711102335,42.9219217862,3.73649837258,0.22932192982,0.851751229451,2.78238650956,0.0,0.0,0.0
45,1.60501544597,0.895980745782,57.2109028968,2.20453904198,0.311216539682,43.2851682863,3.7372361605,0.231753021465,0.849846221126,2.77428679785,0.0,0.0,0.0
46,1.62247658808,0.907622876307,56.7202948218,2.21035173611,0.311626277233,43.6359739436,3.73789213504,0.234075529874,0.848080163615,2.76647786606,0.0,0.0,0.0
47,1.63949563537,0.919254652253,56.2384202425,2.2159680793,0.311939270794,43.9749042343,3.73846736528,0.236282493594,0.846449806773,2.75897036765,0.0,0.0,0.0
48,1.65608959472,0.930873006376,55.7651212469,2.22139582228,0.312154616188,44.3024956124,3.73896309532,0.23836714981,0.844951587078,2.75177400549,0.0,0.0,0.0
49,1.67227470914,0.942475111418,55.3002348328,2.22664235588,0.31227153788,44.6192569092,3.739380706,0.240322957872,0.843581690105,2.74489755322,0.0,0.0,0.0
50,1.68806648942,0.95405836212,54.843594304,2.23171472661,0.31324439165,44.9256706899,3.7397216828,0.243293901939,0.842100092848,2.73692385679,0.0,0.0,0.0
51,1.70347974628,0.965620359169,54.3950304488,2.23661965229,0.313174175056,45.2221945947,3.73998758902,0.24500422929,0.840975916688,2.73066936765,0.0,0.0,0.0
52,1.7185286211,0.977158893717,53.9543725792,2.24136353703,0.313003854381,45.5092626223,3.7401800433,0.246567493014,0.839967750696,2.72475614691,0.0,0.0,0.0
53,1.73322661684,0.988671933657,53.5214493962,2.24595248616,0.312733068668,45.7872863836,3.74030070095,0.247978206805,0.839071282181,2.7191895554,0.0,0.0,0.0
54,1.7475866272,1.0001576103,53.0960897529,2.25039232034,0.313362699305,46.0566562907,3.74035123838,0.250508406341,0.838053527212,2.71238813391,0.0,0.0,0.0
55,1.76162096565,1.01161420666,52.6781232788,2.25468858951,0.312901696164,46.3177427103,3.74033334019,0.251628926785,0.837368966181,2.70748874002,0.0,0.0,0.0
56,1.77534139267,1.02304014602,52.2673809304,2.25884658602,0.313363652966,46.570897049,3.74024868862,0.253924217932,0.836559655634,2.70128338571,0.0,0.0,0.0
57,1.78875914274,1.03443398196,51.8636954306,2.26287135748,0.312711778987,46.8164528025,3.74009895473,0.254735242748,0.836069966272,2.69706550865,0.0,0.0,0.0
58,1.80188494939,1.04579438844,51.4669016581,2.26676771884,0.313005532353,47.0547265363,3.73988579137,0.256776609354,0.835452346345,2.69146973691,0.0,0.0,0.0
59,1.81472907007,1.05712015143,51.0768369444,2.27054026415,0.312162611987,47.2860188319,3.73961082738,0.257261252921,0.835140982152,2.68794261987,0.0,0.0,0.0
60,1.82730130906,1.06841016033,50.6933413406,2.27419337757,0.312288059601,47.5106151675,3.73927566303,0.259031679742,0.834698736505,2.68296527037,0.0,0.0,0.0
61,1.83961103998,1.07966340068,50.3162578142,2.27773124396,0.311254318466,47.7287867621,3.73888186639,0.259175760348,0.834550029079,2.6801335841,0.0,0.0,0.0
62,1.85166722703,1.09087894721,49.945432408,2.28115785905,0.311211716441,47.9407913708,3.73843097053,0.2606604973,0.834267629201,2.67577929147,0.0,0.0,0.0
63,1.86347844497,1.10205595713,49.5807143717,2.28447703884,0.311090875577,48.146874029,3.73792447138,0.262014103835,0.834061412238,2.67171909051,0.0,0.0,0.0
64,1.87505289847,1.11319366435,49.2219562489,2.2876924288,0.310891929094,48.3472677626,3.73736382625,0.26323333821,0.833927787447,2.66795331912,0.0,0.0,0.0
65,1.88639844044,1.12429137398,48.8690139385,2.29080751247,0.310615039088,48.5421942549,3.73675045272,0.264315202761,0.833863285875,2.66448192746,0.0,0.0,0.0
66,1.89752258911,1.13534845693,48.5217467437,2.29382561956,0.310260393987,48.7318644705,3.736085728,0.265256954904,0.833864570275,2.66130450181,0.0,0.0,0.0
67,1.90843254478,1.14636434554,48.1800173814,2.29674993377,0.308680694521,48.9164792516,3.73537098868,0.264368246437,0.834121318476,2.66048318578,0.0,0.0,0.0
68,1.91913520512,1.15733852879,47.8436919953,2.29958350008,0.309318710788,49.0962298698,3.73460753061,0.266710488537,0.834051854458,2.65582821065,0.0,0.0,0.0
69,1.92963718014,1.16827054844,47.5126401387,2.30232923168,0.30873216186,49.2712985525,3.73379660919,0.267218148568,0.834231905028,2.65352690089,0.0,0.0,0.0
70,1.93994480628,1.1791599953,47.1867347477,2.3049899166,0.308068832538,49.441858978,3.73293943968,0.267577468979,0.834465852492,2.65151471032,0.0,0.0,0.0
71,1.95006415946,1.19000650552,46.8658521137,2.30756822388,0.307329012388,49.6080767356,3.7320371978,0.267787117399,0.834751113201,2.649789734,0.0,0.0,0.0
72,1.96000106786,1.20080975742,46.5498718359,2.31006670944,0.306513006119,49.7701097647,3.73109102038,0.267846062678,0.835085264176,2.64834982828,0.0,0.0,0.0
73,1.96976112389,1.2115694686,46.2386767679,2.31248782174,0.306833914456,49.9281087678,3.73010200609,0.269620881854,0.835290437989,2.64493837957,0.0,0.0,0.0
74,1.9793496953,1.22228539293,45.9321529685,2.31483390694,0.305877230467,50.0822175933,3.72907121632,0.269401687146,0.83571704319,2.64403161169,0.0,0.0,0.0
75,1.98877193602,1.23295731803,45.6301896354,2.31710721396,0.304845307886,50.2325736027,3.72799967608,0.269029456477,0.836185906514,2.64340280474,0.0,0.0,0.0
76,1.9980327963,1.24358506288,45.3326790426,2.31930989919,0.304983328773,50.379308012,3.72688837491,0.270456033642,0.836527097872,2.64070646032,0.0,0.0,0.0
77,2.00713703236,1.25416847561,45.0395164698,2.32144403093,0.303812588746,50.5225462165,3.72573826786,0.269800593445,0.837075617261,2.64059665603,0.0,0.0,0.0
78,2.01608921535,1.26470743128,44.7506001375,2.32351159364,0.303833622202,50.6624080917,3.72455027651,0.271000001465,0.837498153141,2.63835727479,0.0,0.0,0.0
79,2.02489374011,1.27520183001,44.4658311326,2.3255144919,0.302525364169,50.7990082813,3.72332528994,0.270059788527,0.838118973294,2.63875584475,0.0,0.0,0.0
80,2.03355483337,1.28565159527,44.1851133343,2.32745455427,0.302430560554,50.9324564678,3.72206416572,0.271027917211,0.838614952063,2.63696456669,0.0,0.0,0.0
81,2.04207656137,1.296056672,43.9083533462,2.32933353679,0.302283493189,51.062857624,3.72076773098,0.271895361689,0.839147083467,2.6353804155,0.0,0.0,0.0
82,2.0504628373,1.30641702523,43.6354604199,2.33115312645,0.30077669764,51.1903122546,3.71943678329,0.270537593942,0.839864217284,2.63650682418,0.0,0.0,0.0
83,2.05871742826,1.31673263851,43.3663463837,2.33291494434,0.300515562295,51.3149166207,3.71807209176,0.271169674156,0.840459412243,2.63535627776,0.0,0.0,0.0
84,2.06684396189,1.32700351268,43.1009255679,2.33462054875,0.300203002033,51.4367629542,3.71667439789,0.271698678997,0.841085694805,2.63440601012,0.0,0.0,0.0
85,2.07484593258,1.33722966445,42.8391147377,2.33627143802,0.299839289304,51.5559396566,3.7152444166,0.272123894845,0.841741499396,2.63365375031,0.0,0.0,0.0
86,2.0827267074,1.34741112531,42.5808330203,2.33786905326,0.299424699711,51.6725314894,3.71378283711,0.272444747527,0.842425350879,2.63309714866,0.0,0.0,0.0
87,2.09048953191,1.35754794056,42.3260018335,2.33941478101,0.29895951164,51.7866197543,3.71229032384,0.272660803548,0.843135862873,2.63273378361,0.0,0.0,0.0
88,2.09813753527,1.36764016802,42.0745448222,2.34090995565,0.298444005853,51.8982824594,3.71076751729,0.272771770757,0.843871735867,2.63256116823,0.0,0.0,0.0
89,2.10567373552,1.3776878773,41.8263877882,2.3423558617,0.297878465195,52.0075944804,3.70921503491,0.272777498752,0.844631755171,2.63257675618,0.0,0.0,0.0
90,2.1131010443,1.38769114882,41.5814586269,2.34375373611,0.297263174268,52.1146277108,3.70763347188,0.272677978746,0.845414788707,2.63277794734,0.0,0.0,0.0
91,2.12042227156,1.39765007308,41.3396872597,2.34510477031,0.296598419171,52.2194512051,3.70602340197,0.272473343086,0.846219784677,2.63316209295,0.0,0.0,0.0
92,2.12764012975,1.40756474973,41.1010055775,2.3464101122,0.295884487202,52.3221313117,3.70438537826,0.272163864203,0.8470457691,2.63372650058,0.0,0.0,0.0
93,2.13475723812,1.41743528697,40.8653473759,2.34767086807,0.295121666643,52.4227318016,3.70271993393,0.271749953272,0.847891843273,2.63446843855,0.0,0.0,0.0
94,2.14177612656,1.42726180089,40.632648297,2.34888810437,0.294310246529,52.5213139883,3.70102758293,0.271232158389,0.84875718114,2.63538514009,0.0,0.0,0.0
95,2.1486992394,1.43704441473,40.4028457729,2.35006284942,0.293450516435,52.6179368417,3.69930882075,0.27061116233,0.849641026597,2.6364738072,0.0,0.0,0.0
96,2.15552893897,1.4467832585,40.1758789677,2.35119609507,0.293990997792,52.7126570968,3.69756412503,0.272363357219,0.85042138495,2.63492106247,0.0,0.0,0.0
97,2.16226750897,1.45647846818,39.9516887262,2.35228879819,0.293045222659,52.8055293547,3.69579395625,0.271556281415,0.851340203702,2.63632744463,0.0,0.0,0.0
98,2.16891715772,1.46613018541,39.7302175194,2.35334188217,0.292051964206,52.89660618,3.69399875832,0.270647718791,0.852275347796,2.63789777425,0.0,0.0,0.0
99,2.1754800212,1.47573855691,39.5114093942,2.35435623831,0.292488728349,52.9859381924,3.69217895923,0.272186282796,0.853110959092,2.63676625176,0.0,0.0,0.0
100,2.18195816605,1.48530373415,39.2952099223,2.35533272713,0.291410948208,53.0735741544,3.69033497156,0.271093099205,0.854076419686,2.63863964089,0.0,0.0,0.0
101,2.18835359228,1.49482587277,39.0815661552,2.35611680073,0.291782833397,53.1536607672,3.68812942593,0.27244727068,0.855125473858,2.63820365666,0.0,0.0,0.0
102,2.19466823598,1.50430513234,38.8704265758,2.35521358177,0.290621517446,53.1699196394,3.68230814912,0.270571781906,0.858188697963,2.64533848547,0.0,0.0,0.0
103,2.20090397183,1.51374167592,38.6617410538,2.35434582081,0.290929336506,53.188137507,3.67661255,0.271266478737,0.86105197344,2.64950701366,0.0,0.0,0.0
104,2.20706261551,1.52313566973,38.4554608026,2.35351276834,0.291210128446,53.2082361809,3.67104036135,0.271933214257,0.863828407815,2.65360332957,0.0,0.0,0.0
105,2.21314592607,1.53248728291,38.2515383362,2.35271369986,0.291464053214,53.2301406211,3.66558936614,0.272571456348,0.866520633045,2.65762889035,0.0,0.0,0.0
106,2.21915560802,1.54179668713,38.0499274303,2.35194791493,0.291691270551,53.2537788007,3.66025739657,0.273180684375,0.869131193085,2.66158510019,0.0,0.0,0.0
107,2.22509331353,1.55106405633,37.8505830816,2.35121473618,0.291891939951,53.2790815768,3.65504233313,0.27376038947,0.871662546965,2.66547331348,0.0,0.0,0.0
108,2.23096064438,1.56028956654,37.6534614703,2.35051350841,0.29206622059,53.3059825669,3.64994210369,0.274310074807,0.874117071717,2.66929483781,0.0,0.0,0.0
109,2.23675915388,1.56947339553,37.4585199231,2.34984359778,0.292214271272,53.3344180308,3.6449546825,0.274829255885,0.876497065207,2.67305093677,0.0,0.0,0.0
110,2.24249034872,1.5786157227,37.2657168772,2.3492043909,0.290756054478,53.3643267584,3.64007808934,0.272527655987,0.878889625292,2.67949993016,0.0,0.0,0.0
111,2.24815569069,1.58771672878,37.0750118474,2.34859529415,0.29084300983,53.3956499615,3.63531038855,0.272960984258,0.881124217872,2.68311673413,0.0,0.0,0.0
112,2.25375659838,1.59677659568,36.8863653916,2.34801573286,0.290904250124,53.4283311721,3.63064968814,0.273362571773,0.883290852023,2.68667218817,0.0,0.0,0.0
113,2.25929444872,1.60579550628,36.6997390793,2.3474651506,0.290939932036,53.4623161435,3.62609413886,0.273731999755,0.885391532111,2.69016739201,0.0,0.0,0.0
114,2.26477057861,1.61477364434,36.5150954598,2.34694300854,0.290950211666,53.4975527577,3.6216419333,0.274068863395,0.887428196126,2.69360341381,0.0,0.0,0.0
115,2.27018628627,1.6237111942,36.3323980337,2.34644878474,0.290935244487,53.5339909349,3.61729130506,0.27437277214,0.889402717929,2.69698129202,0.0,0.0,0.0
116,2.27554283267,1.63260834077,36.1516112229,2.34598197358,0.290895185329,53.5715825489,3.61304052779,0.27464335004,0.891316909453,2.70030203724,0.0,0.0,0.0
117,2.28084144294,1.64146526929,35.972700343,2.34554208514,0.290830188347,53.6102813455,3.60888791438,0.274880236064,0.893172522803,2.70356663386,0.0,0.0,0.0
118,2.28608330753,1.65028216529,35.7956315761,2.34512864459,0.290740406998,53.6500428644,3.60483181608,0.275083084417,0.894971252289,2.70677604168,0.0,0.0,0.0
119,2.29126958356,1.65905921441,35.6203719447,2.34474119172,0.290625994022,53.6908243649,3.60087062167,0.275251564876,0.896714736389,2.70993119744,0.0,0.0,0.0
120,2.2964013959,1.66779660229,35.4468892869,2.34437928037,0.290487101414,53.7325847545,3.59700275663,0.27538536308,0.898404559624,2.71303301621,0.0,0.0,0.0
121,2.30147983833,1.6764945145,35.2751522318,2.34404247791,0.29032388041,53.7752845214,3.5932266823,0.275484180856,0.900042254394,2.71608239281,0.0,0.0,0.0
