,theta i [rad],r orb [AU],v orb [km s-1],ang orb [rad],r L1 [AU],v i [km s-1],ang i [rad],a p [AU],e p,theta p i [rad],flag impact,v imp [km s-1],ang imp [rad]
0,0.0,0.3294,103.770801046,1.57079632679,0.156291895402,10.3770801046,1.57079632679,0.0788941260655,0.981033356931,3.14159265359,1.0,608.671605861,0.960469991288
1,0.108106989297,0.330266935453,103.6207787,1.61940054425,0.156372636619,11.2893806901,2.0330242491,0.0790743124473,0.982047647401,3.15072138757,1.0,608.692659038,0.978389448383
2,0.215091344097,0.332848695524,103.177367883,1.66746896152,0.157261849657,13.6273594338,2.39029221477,0.0799465131428,0.984802346966,3.15826439139,1.0,608.7932164,1.02764466708
3,0.319905578525,0.337089879191,102.459669163,1.71450201699,0.158590837591,16.7172352398,2.64192429211,0.0813264303291,0.988756792711,3.16283869012,1.0,608.947871111,1.10549535884
4,0.421640135077,0.342903595286,101.496843869,1.7600666296,0.160296278831,20.105289536,2.82336745789,0.0831852754335,0.993088735652,3.16344522683,1.0,609.148032301,1.20675193032
5,0.519565072824,0.350178525661,100.324787275,1.80381622177,0.162294955917,23.547835961,2.96142524995,0.0854821489185,0.996903783018,3.15952832874,1.0,609.383252615,1.32665525107
6,0.613147625953,0.358786978918,98.982564432,1.84549906362,0.164488928887,26.9156605311,3.07177809134,0.0881643519747,0.999390206412,3.15094360034,1.0,609.642316404,1.46161427632
7,0.702047987408,0.368592783336,97.5092198485,1.88495609645,0.167139674172,30.1392136463,3.16339180347,0.0913880299539,0.999925658081,3.13786374002,1.0,609.93342623,1.5320642251
8,0.78609913019,0.379458166076,95.9413380697,1.92211106692,0.169787591515,33.182277206,3.24158284388,0.0948894166961,0.99812000999,3.12062596465,1.0,610.227064298,1.37123850115
9,0.865277550241,0.391249155447,94.3114760348,1.95695631495,0.172321954084,36.028614377,3.30967043393,0.0985868988186,0.993815523249,3.09974603144,1.0,610.514368343,1.19617699007
10,0.939671039382,0.403839395677,92.6473935536,1.98953717352,0.175037499608,38.6744411785,3.36984046471,0.102663779236,0.987038696546,3.07566309707,1.0,610.807024645,1.00107546643
11,1.00944788236,0.417112509263,90.9719045117,2.01993710069,0.177450270541,41.1237619076,3.42360679456,0.10678158585,0.977995132688,3.04902815202,1.0,611.079807879,0.796371338768
12,1.07483003374,0.430963271472,89.3031456847,2.04826476975,0.179891579671,43.3853044041,3.47206621527,0.111153450235,0.966940073575,3.02016692213,1.0,611.347182857,1.09962802511
13,1.13607132046,0.445297897293,87.6550831141,2.07464361121,0.181863409453,45.4704564299,3.51604478801,0.115377113562,0.954275788784,2.9898475681,0.0,0.0,0.0
14,1.19344070572,0.460033720973,86.0381193633,2.09920381285,0.183737195872,47.3918767128,3.55618510247,0.119703143294,0.940303922829,2.95821814106,0.0,0.0,0.0
15,1.24721007076,0.475098496879,84.4597105463,2.1220765061,0.185473891743,49.1625763613,3.5930003267,0.124078667864,0.925361050396,2.92561608609,0.0,0.0,0.0
16,1.29764574234,0.490429496533,82.9249394634,2.14338975913,0.187040682991,50.7953310371,3.62690897873,0.128449681603,0.9097613516,2.89235273881,0.0,0.0,0.0
17,1.34500295397,0.505972523607,81.4370187757,2.16326598018,0.187903714168,52.3023237698,3.65825813924,0.132258563691,0.893965908334,2.85955917891,0.0,0.0,0.0
18,1.38952251085,0.521680927763,79.9977159075,2.1818203764,0.188515334519,53.6949460885,3.68733950893,0.135868438833,0.878084300815,2.82694872001,0.0,0.0,0.0
19,1.43142904852,0.537514666501,78.6077018906,2.19916017265,0.18885650878,54.9837053888,3.71440089045,0.139216546211,0.862316982305,2.79481785269,0.0,0.0,0.0
20,1.47093040426,0.553439441935,77.2668317314,2.215384358,0.18946575929,56.178201554,3.73965464893,0.142870169821,0.846583626806,2.76217585006,0.0,0.0,0.0
21,1.50821773616,0.569425924393,75.9743659996,2.23058378461,0.189238650005,57.2871469921,3.76328411283,0.145555536105,0.831473811442,2.73169711787,0.0,0.0,0.0
22,1.54346612149,0.585449065264,74.7291435727,2.24484148997,0.189289341939,58.3184123662,3.78544852764,0.148521212895,0.816584280979,2.70091637553,0.0,0.0,0.0
23,1.57683544264,0.601487495789,73.5297147048,2.25823315134,0.18845404481,59.2790861083,3.80628696382,0.150318024949,0.802510714343,2.67315409081,0.0,0.0,0.0
24,1.60847142568,0.617523004995,72.3744424419,2.27082760802,0.187914913075,60.1755398722,3.82592144892,0.152384892956,0.788737649214,2.64524050156,0.0,0.0,0.0
25,1.63850674256,0.63354008987,71.2615790196,2.28268740954,0.187081412628,61.0134950019,3.84445951249,0.153957340353,0.77556364749,2.6190225477,0.0,0.0,0.0
26,1.66706211379,0.649525567982,70.18932284,2.29386936028,0.186600443212,61.7980868809,3.86199627527,0.155902343728,0.762682608605,2.59233865272,0.0,0.0,0.0
27,1.69424737725,0.665468246364,69.1558603052,2.30442504437,0.185851497044,62.5339255219,3.87182656038,0.157372233601,0.754734462423,2.57199003475,0.0,0.0,0.0
28,1.72016249694,0.681358637405,68.1593961269,2.31440131923,0.18483302863,63.2251514138,3.87600084425,0.158335707226,0.750652346006,2.55714742825,0.0,0.0,0.0
29,1.74489850269,0.697188716624,67.1981747461,2.32384077364,0.183544181572,63.8754863721,3.87987592467,0.158767314019,0.747045157927,2.54437043433,0.0,0.0,0.0
30,1.76853835357,0.712951715364,66.2704950696,2.33278214738,0.182698342441,64.4882793507,3.88346906035,0.15973605643,0.743573020797,2.53071511939,0.0,0.0,0.0
31,1.79115772599,0.72864194397,65.3747201301,2.34126071331,0.181613462523,65.0665474628,3.88679668283,0.160223236046,0.740504374658,2.51895117459,0.0,0.0,0.0
32,1.81282572725,0.744254640067,64.5092830003,2.34930862251,0.180289917873,65.6130125002,3.88987433925,0.160213818091,0.737801595241,2.50912546673,0.0,0.0,0.0
33,1.8336055405,0.759785839286,63.672689869,2.3554337649,0.179488952122,66.0333206849,3.88962126884,0.160544413655,0.737412449296,2.50262594669,0.0,0.0,0.0
34,1.8535550046,0.775232264296,62.8635210817,2.34816167886,0.182361949164,65.6113714413,3.86247194318,0.163509355284,0.755070630595,2.52167417601,0.0,0.0,0.0
35,1.87272713495,0.790591229711,62.080430691,2.34123957134,0.184392153795,65.2316262446,3.83624711541,0.165259182378,0.771841111475,2.54310382716,0.0,0.0,0.0
36,1.89117059042,0.80586056048,61.3221449552,2.33464497069,0.187146801959,64.8906958916,3.81091322988,0.168309239043,0.787311868756,2.56058896944,0.0,0.0,0.0
37,1.90893009174,0.821038521741,60.5874601094,2.32835726163,0.189027893032,64.5854738178,3.78643772776,0.170078678267,0.801993797946,2.58034728078,0.0,0.0,0.0
38,1.92604679622,0.836123758526,59.8752396538,2.32235750599,0.191664009858,64.3131123372,3.76278904556,0.173199951189,0.815546299126,2.59654801674,0.0,0.0,0.0
39,1.94255863295,0.851115243508,59.1844113582,2.31662828263,0.193396561997,64.0710006929,3.73993661376,0.174971357497,0.828395837534,2.6149124637,0.0,0.0,0.0
40,1.95850060385,0.866012232483,58.5139640764,2.31115354395,0.195047805286,63.856744827,3.71785085317,0.176723377636,0.840408734798,2.63261392532,0.0,0.0,0.0
41,1.9739050527,0.880814225377,57.8629445273,2.30591848777,0.19661819564,63.6681488068,3.69650317043,0.178451392071,0.851638286062,2.64970412902,0.0,0.0,0.0
42,1.98880190685,0.895520932821,57.2304540687,2.30090944241,0.198108239592,63.5031977879,3.67586595055,0.180150979143,0.862134391374,2.66622833946,0.0,0.0,0.0
43,2.00321889383,0.910132246887,56.6156455488,2.29611376387,0.199518485767,63.3600424234,3.6559125477,0.18181788962,0.87194375572,2.68222634906,0.0,0.0,0.0
44,2.01718173644,0.924648216232,56.0177202302,2.29151974339,0.200849517666,63.2369846048,3.63661727255,0.183448026322,0.881110084735,2.69773328604,0.0,0.0,0.0
45,2.03071432777,0.939069024084,55.4359248562,2.28711652451,0.202101947365,63.1324644435,3.61795537803,0.185037427735,0.889674272977,2.71278027842,0.0,0.0,0.0
46,2.04383888873,0.953394969084,54.869548851,2.28289402865,0.203276410078,63.0450483892,3.59990304277,0.186582255161,0.897674583706,2.72739500401,0.0,0.0,0.0
47,2.05657611049,0.967626449068,54.3179216463,2.27884288785,0.204373559579,62.9734183894,3.58243735197,0.18807878304,0.905146819583,2.74160214973,0.0,0.0,0.0
48,2.06894528252,0.981763946548,53.7804101715,2.27495438436,0.204411317485,62.916362009,3.565536277,0.187856650609,0.912194370463,2.75739938123,0.0,0.0,0.0
49,2.0809644084,0.995808016001,53.2564164928,2.27122039613,0.205341798394,62.8727634238,3.54917865354,0.189212881338,0.918701985417,2.77079456671,0.0,0.0,0.0
50,2.09265031082,1.00975927331,52.7453755748,2.26763334744,0.206197094162,62.8415952105,3.53334415781,0.190510022217,0.92477630005,2.78384404265,0.0,0.0,0.0
51,2.10401872623,1.02361838583,52.2467532113,2.26418616437,0.206977897162,62.8219108677,3.51801328269,0.191744807548,0.930444753677,2.79656363628,0.0,0.0,0.0
52,2.11508439111,1.0373860644,51.7600440637,2.2608722344,0.207684903123,62.8128379983,3.50316731224,0.192914069869,0.935733034942,2.80896763649,0.0,0.0,0.0
53,2.12586112005,1.05106305594,51.2847698413,2.25768536981,0.208318809239,62.8135720965,3.48878829619,0.194014741364,0.94066519737,2.82106896669,0.0,0.0,0.0
54,2.13636187654,1.06465013694,50.8204776086,2.25461977448,0.207814596673,62.8233708848,3.47485902422,0.193193638066,0.945303107021,2.83451919953,0.0,0.0,0.0
55,2.14659883799,1.07814810827,50.3667381827,2.25167001357,0.208290881164,62.8415491498,3.46136299938,0.194115464942,0.949585141536,2.84599892599,0.0,0.0,0.0
56,2.1565834542,1.09155778992,49.9231446694,2.24883098619,0.208696239514,62.867474033,3.44828441252,0.194960272401,0.953574832736,2.85720920694,0.0,0.0,0.0
57,2.16632650151,1.10488001721,49.489311068,2.24609790017,0.209031360026,62.9005607354,3.43560811594,0.195725489014,0.957290669626,2.86815872305,0.0,0.0,0.0
58,2.17583813149,1.11811563667,49.0648709996,2.24346624931,0.20929692641,62.9402685957,3.42331959815,0.196408663971,0.960749976331,2.87885538527,0.0,0.0,0.0
59,2.18512791604,1.13126550305,48.6494765013,2.2409317925,0.209493617121,62.9860975116,3.41140495849,0.197007472735,0.963968987541,2.88930641238,0.0,0.0,0.0
60,2.1942048885,1.14433047657,48.2427969076,2.23849053453,0.20962210477,63.0375846712,3.39985088234,0.19751972291,0.966962918727,2.89951839986,0.0,0.0,0.0
61,2.20307758113,1.15731142019,47.8445178182,2.23613870872,0.209683055577,63.094301565,3.38864461724,0.197943360154,0.969746031487,2.90949738098,0.0,0.0,0.0
62,2.21175405988,1.17020919784,47.4543401175,2.23387276082,0.209677129022,63.1558512571,3.37777394907,0.198276474377,0.972331694602,2.91924888183,0.0,0.0,0.0
63,2.22024195593,1.18302467217,47.071979081,2.23168933436,0.209604977444,63.2218658858,3.36722717949,0.198517305671,0.974732440818,2.92877797016,0.0,0.0,0.0
64,2.22854849509,1.19575870335,46.6971635198,2.22958525709,0.209467245839,63.2920043817,3.35699310353,0.198664250385,0.976960019993,2.93808929972,1.0,614.216505755,1.44683805921
65,2.23668052448,1.20841214732,46.3296350047,2.22755752862,0.209264571578,63.3659503732,3.34706098841,0.198715866744,0.979025448567,2.94718714974,1.0,614.217450206,1.24507481901
66,2.24464453742,1.22098585476,45.9691471251,2.22560330893,0.208997584282,63.4434102721,3.33742055277,0.198670880383,0.980939055881,2.95607546088,1.0,614.216627095,1.12787453225
67,2.25244669631,1.23348067018,45.6154648006,2.22371990785,0.208666905713,63.5241115189,3.32806194665,0.198528189483,0.982710527444,2.96475786767,1.0,614.214013817,1.03639604143
68,2.2600928536,1.24589743074,45.2683636474,2.22190477538,0.208273149643,63.6078009705,3.31897573256,0.198286869367,0.984348945356,2.97323772771,1.0,614.209585634,0.959021517938
69,2.26758857139,1.2582369657,44.9276293744,2.22015549265,0.207816921835,63.6942434256,3.31015286693,0.197946176743,0.985862826182,2.98151814842,1.0,614.203315547,0.89094654989
70,2.2749391395,1.27050009582,44.5930572212,2.21846976369,0.207298820025,63.7832202689,3.30158468239,0.197505553359,0.987260156409,2.9896020113,1.0,614.195174164,0.829630367615
71,2.2821495921,1.28268763263,44.2644514396,2.21684540769,0.206719433889,63.8745282249,3.29326287102,0.196964628947,0.988548425617,2.99749199383,1.0,614.185129567,0.797259836472
72,2.28922472326,1.29480037813,43.9416247999,2.21528035195,0.20737544155,63.9679782151,3.28517946802,0.198689261021,0.989728882479,3.00432649752,1.0,614.216963449,0.843659151948
73,2.29616910134,1.30683912445,43.6243981289,2.21377262526,0.206687274558,64.063394307,3.27732683618,0.197967723073,0.990820176494,3.01187384163,1.0,614.203712725,0.892494016459
74,2.30298708232,1.31880465338,43.3125998852,2.2123203518,0.205939471033,64.1606127446,3.26969765114,0.197144666297,0.991822145067,3.01923394315,1.0,614.188478876,0.938287824593
75,2.30968282217,1.33069773628,43.0060657525,2.21092174547,0.205132589624,64.2594810592,3.26228488719,0.196220444448,0.992740590476,3.02640886299,1.0,614.171219793,0.981445790874
76,2.31626028852,1.34251913391,42.7046382585,2.2095751046,0.205611044187,64.3598572501,3.25508180368,0.197664709763,0.993577445597,3.03268554657,1.0,614.198119091,1.01830319237
77,2.3227232713,1.35426959615,42.4081664256,2.20827880707,0.2046994141,64.4616090269,3.24808193223,0.196555563949,0.994345124853,3.03953225036,1.0,614.177496687,1.05735734382
78,2.32907539278,1.365949862,42.1165054334,2.20703130571,0.203730265384,64.5646131141,3.24127906436,0.195346051919,0.995044591103,3.04619896625,1.0,614.154740437,1.09451626899
79,2.33532011698,1.37756065961,41.829516304,2.20583112407,0.204083066377,64.6687546091,3.23466723968,0.19658017649,0.995678005553,3.05208073055,1.0,614.177956841,1.12677378592
80,2.34146075831,1.38910270605,41.5470656121,2.20467685245,0.203012012797,64.7739263876,3.22824073483,0.195185035518,0.996254447139,3.05842789364,1.0,614.151689673,1.16085386246
81,2.34750048977,1.40057670745,41.2690252043,2.20356714419,0.203286915203,64.8800285564,3.22199405276,0.196289407222,0.996773660361,3.06406366277,1.0,614.172513244,1.19072903922
82,2.35344235054,1.41198335897,40.9952719401,2.20250071223,0.202115741796,64.9869679479,3.21592191256,0.194708741276,0.997242853544,3.0700961978,1.0,614.142635741,1.22215460665
83,2.35928925318,1.42332334497,40.7256874438,2.20147632584,0.202314234948,65.0946576521,3.21001923977,0.195680125166,0.997662507431,3.07548954553,1.0,614.161054031,1.24996255942
84,2.36504399017,1.43459733886,40.4601578775,2.20049280765,0.201044677859,65.2030165831,3.20428115723,0.193915120973,0.998038377018,3.08121199912,1.0,614.127450626,1.27904548807
85,2.37070924026,1.44580600331,40.1985737205,2.19954903079,0.201168208417,65.3119690793,3.19870297627,0.194751010234,0.998371420326,3.08636620709,1.0,614.143441033,1.30502139742
86,2.37628757435,1.45694999045,39.9408295622,2.19864391622,0.19980195641,65.4214445336,3.19328018833,0.192803947853,0.998666257308,3.09178283893,1.0,614.105978772,1.3319972049
87,2.38178146091,1.46802994173,39.6868239127,2.1977764303,0.199851929773,65.5313770476,3.18800845706,0.193502597448,0.998924140198,3.09670096898,1.0,614.119508059,1.35632085341
88,2.38719327117,1.47904648822,39.4364590164,2.19694558243,0.199871152837,65.6417051153,3.18288361073,0.194151476672,0.999148389597,3.10151881363,1.0,614.131986071,1.37995720442
89,2.392525284,1.49000025065,39.1896406801,2.19615042285,0.198368407532,65.7523713271,3.17790163501,0.191937296498,0.999341641545,3.10650078655,1.0,614.08905886,1.4041826344
90,2.39777969048,1.50089183966,38.9462781086,2.19539004063,0.198316044675,65.8633220966,3.17305866612,0.192446836448,0.999505446408,3.11108660228,1.0,614.099025288,1.42636132494
91,2.40295859812,1.51172185579,38.7062837526,2.1946635617,0.198233802712,65.9745074053,3.16835098429,0.192904771677,0.999642290474,3.11557370321,1.0,614.107937286,1.44792857978
92,2.40806403497,1.52249088969,38.469573161,2.19397014704,0.196597928513,66.0858805672,3.16377500756,0.190429750487,0.99975423982,3.12012892227,1.0,614.059258472,1.46968077814
93,2.41309795339,1.53319952226,38.2360648433,2.193308991,0.196445990662,66.1973980095,3.15932728585,0.190747819792,0.999842885873,3.1243878599,1.0,614.06558523,1.48992948659
94,2.41806223364,1.5438483249,38.0056801371,2.19267931966,0.196265008098,66.3090190692,3.15500449528,0.191013067501,0.999910130594,3.12854959513,1.0,614.070845144,1.50962166304
95,2.42295868728,1.55443785945,37.7783430873,2.19208038936,0.196055231357,66.4207058022,3.15080343288,0.191225013674,0.999957608138,3.13261453908,1.0,614.075037558,1.52877141291
96,2.42778906032,1.56496867854,37.553980326,2.1915114852,0.19425037236,66.5324228078,3.14672101141,0.188413112016,0.999986862624,3.13662317974,1.0,614.018646644,1.54757658649
97,2.43255503626,1.57544132564,37.3325209627,2.19097191977,0.193973262171,66.6441370645,3.14275425451,0.188486182627,0.999999325913,3.14046486841,1.0,614.020133389,1.56553605315
98,2.43725823897,1.58585633531,37.1138964768,2.19046103183,0.193668146917,66.7558177774,3.13890029205,0.188505563152,0.999996378315,3.1442112795,1.0,614.020527524,1.55860260393
99,2.44190023529,1.59621423323,36.8980406201,2.18997818514,0.193335263353,66.8674362345,3.13515635573,0.188471006917,0.999979300904,3.14786283446,1.0,614.019824709,1.54164446604
100,2.44648253766,1.60651553646,36.6848893195,2.18952276729,0.192974845095,66.9789656752,3.13151977485,0.188382318798,0.999949299137,3.15141995979,1.0,614.018019758,1.52517339067
101,2.45100660648,1.61676075354,36.4743805873,2.18909418867,0.192587122675,67.090381166,3.12798797227,0.188239356059,0.999907507121,3.15488308805,1.0,614.015106637,1.5091813159
102,2.45547385241,1.62695038468,36.2664544358,2.18869188143,0.192172323604,67.2016594849,3.12455846062,0.188042029062,0.999854991641,3.15825265874,1.0,614.011078448,1.49366084049
103,2.45988563852,1.63708492192,36.0610527945,2.18831529852,0.191730672432,67.3127790144,3.12122883862,0.187790301873,0.99979275598,3.1615291192,1.0,614.005927419,1.47860515734
104,2.46424328233,1.64716484923,35.8581194339,2.1879639128,0.189613577147,67.4237196394,3.11799678762,0.184341582414,0.999721858182,3.16451357497,1.0,613.933936018,1.46492067864
105,2.46854805775,1.6571906427,35.6575998908,2.18763721617,0.189108848031,67.5344626549,3.11486006825,0.183958086025,0.999642985881,3.16757655769,1.0,613.925763298,1.45090719056
106,2.47280119694,1.6671627707,35.4594413982,2.18733471875,0.188577976988,67.644990677,3.11181651728,0.18352140711,0.999557060203,3.1705481249,1.0,613.916415477,1.43733981942
107,2.47700389204,1.67708169402,35.263592818,2.1870559481,0.188021176835,67.7552875616,3.10886404458,0.18303175268,0.999464864944,3.17342876609,1.0,613.905880409,1.42421359352
108,2.48115729682,1.68694786597,35.0700045782,2.18680044851,0.187438657715,67.8653383272,3.10600063023,0.182489382916,0.999367136787,3.17621898203,1.0,613.894144949,1.41152386874
109,2.48526252828,1.69676173258,34.8786286114,2.18656778031,0.186830627153,67.9751290834,3.10322432176,0.181894610894,0.999264568021,3.17891928534,1.0,613.881194927,1.39926628852
110,2.48932066812,1.70652373273,34.689418297,2.18635751914,0.187905522064,68.0846469636,3.10053323156,0.184513414546,0.99915746532,3.181896812,1.0,613.93758689,1.3857566891
111,2.49333276419,1.71623429828,34.5023284059,2.18616925544,0.187256801262,68.1938800624,3.09792553432,0.183831725624,0.999047073903,3.18444566806,1.0,613.923062929,1.37422767607
112,2.49729983181,1.72589385419,34.3173150482,2.18600259373,0.186583125333,68.3028173765,3.09539946464,0.183097760925,0.998933671081,3.18690590459,1.0,613.907303893,1.36312035761
113,2.5012228551,1.73550281869,34.1343356228,2.18585715213,0.185884692254,68.4114487496,3.09295331476,0.182312024445,0.998817794981,3.18927808215,1.0,613.890292178,1.35243120552
114,2.50510278817,1.74506160338,33.953348769,2.18573256179,0.185161697624,68.5197648208,3.09058543234,0.181475071451,0.998699950798,3.19156277515,1.0,613.872009037,1.3421568209
115,2.50894055632,1.75457061339,33.774314321,2.18562846637,0.184414334716,68.6277569765,3.08829421839,0.180587507457,0.998580612735,3.19376057221,1.0,613.852434548,1.33229390671
116,2.51273705712,1.76403024748,33.5971932643,2.18554452157,0.183642794515,68.7354173044,3.08607812523,0.179649987057,0.998460225843,3.19587207638,1.0,613.831547572,1.32283924203
