,theta i [rad],r orb [AU],v orb [km s-1],ang orb [rad],r L1 [AU],v i [km s-1],ang i [rad],a p [AU],e p,theta p i [rad],flag impact,v imp [km s-1],ang imp [rad]
0,0.0,0.1071,188.070894919,1.57079632679,0.050816219726,18.8070894919,1.57079632679,0.0256680734308,0.979744208811,3.14159265359,1.0,589.201339847,1.2144099305
1,0.571727363325,0.116044484746,180.446016351,1.84764821298,0.0530854185677,49.5091305298,3.0544084457,0.0286427840294,0.998969190434,3.15432604278,1.0,592.240266956,1.4875855288
2,1.00831305911,0.138407953901,164.695096243,2.0580377709,0.0568040691029,80.6788246302,3.44019725071,0.035876547409,0.971031637947,3.02064573397,1.0,597.490590027,1.06402723643
3,1.3088821005,0.167127945164,149.254530382,2.20171657864,0.0578841575471,100.635648859,3.64721422345,0.0432178832038,0.89018007848,2.82168232242,0.0,0.0,0.0
4,1.51827245579,0.198048699277,136.490146339,2.30084819446,0.0561038905702,113.358289533,3.78008136073,0.0472438819714,0.810738640328,2.64140535644,0.0,0.0,0.0
5,1.67070561284,0.229341740368,126.252230639,2.34011642692,0.0557858337951,117.839865775,3.87139246026,0.0494992179913,0.75010262161,2.52492040289,0.0,0.0,0.0
6,1.78666834226,0.260257594953,117.971752173,2.28635470578,0.062524352213,111.473163595,3.76933801968,0.0556056401642,0.812646167767,2.60389399775,0.0,0.0,0.0
7,1.87821167541,0.290502010348,111.155188671,2.24436733294,0.0677547282582,107.679337329,3.61754459842,0.0607848793238,0.8904082595,2.72467870633,0.0,0.0,0.0
8,1.95267158623,0.319974897844,105.439631538,2.2105817168,0.0714258332383,105.512984828,3.48963521669,0.0647049067297,0.940709396385,2.83121768526,1.0,606.642126979,1.14655429183
9,2.01471370014,0.348660858653,100.566373385,2.18273298355,0.0739900973911,104.389425009,3.38112908938,0.0677960298813,0.971689863343,2.92436575187,1.0,607.157265752,0.864285465285
10,2.06743221072,0.376581421737,96.3500972632,2.15932374871,0.0757686397417,103.942059758,3.28837990473,0.0703202301731,0.989310987491,3.00626036721,1.0,607.544047606,1.15074095845
11,2.11295687433,0.403773366077,92.6559256964,2.13932645388,0.076389561163,103.937208206,3.20846229861,0.0713916611842,0.99777602382,3.07941129253,1.0,607.699884149,1.38189480693
12,2.15280168348,0.430278613898,89.3838207866,2.12201277194,0.0766662650258,104.223388461,3.13904841701,0.0722250607805,0.99999677567,3.14398044172,1.0,607.81787624,1.56360208427
13,2.18807330191,0.456139484801,86.4581724591,2.10685184678,0.0767081471475,104.700822626,3.07829066493,0.0728918437432,0.998002593763,3.20157600063,1.0,607.910319974,1.39004772992
14,2.21960038755,0.481396523191,83.8208103537,2.09344728712,0.076136793078,105.302831958,3.02472038413,0.0726103495201,0.993194352446,3.25276290132,1.0,607.871502014,1.23363871764
15,2.24801656859,0.506087587168,81.4262464108,2.08149682107,0.0759891328823,105.984294896,2.97716515384,0.073201496466,0.986531921875,3.29970151289,1.0,607.952673317,1.0855691375
16,2.27381530495,0.530247562912,79.2383796955,2.07076567233,0.0748397518568,106.714361098,2.93468346262,0.0719935210215,0.978704252033,3.34020320753,1.0,607.785371349,0.951277096284
17,2.29738714182,0.553908384034,77.2281731657,2.06106851536,0.0742980272691,107.47177205,2.89651400761,0.071931232454,0.970151094924,3.3784420957,1.0,607.776590901,0.815294180883
18,2.3190456171,0.577099194175,75.3719870239,2.05225694924,0.0733649684567,108.241805328,2.86203666798,0.0711372867739,0.961216888045,3.41215909894,1.0,607.663314661,0.887688865843
19,2.33904566521,0.59984656814,73.6503633983,2.0442106155,0.072654094708,109.014247461,2.83074253605,0.0707467001263,0.95210960326,3.44378139183,1.0,607.606646715,1.03057945704
20,2.35759694295,0.622174749168,72.0471264362,2.03683077789,0.0716217237865,109.782029248,2.80221087142,0.0697232812681,0.943004218676,3.47136203294,1.0,607.455127617,1.18593320277
21,2.37487364526,0.644105880325,70.5487064602,2.03003560135,0.070922575353,110.540294449,2.77609131351,0.0693028654106,0.93398204711,3.49815004685,1.0,607.391576246,1.44657419226
22,2.39102184962,0.665660220976,69.1436256343,2.02375662565,0.0699642934713,111.285756294,2.75209008063,0.0683559375544,0.92514120636,3.52143744005,0.0,0.0,0.0
23,2.40616508854,0.686856343441,67.8221018162,2.01793609414,0.0694419386282,112.016247769,2.72995919836,0.0682104589786,0.916496956658,3.54534430271,0.0,0.0,0.0
24,2.42040863286,0.707711309586,66.5757399675,2.01252490387,0.0687167197785,112.730404114,2.70948803713,0.0676425808382,0.908110733884,3.56637418115,0.0,0.0,0.0
25,2.43384282256,0.728240827562,65.3972892925,2.00748101408,0.0677941972161,113.427436597,2.69049661979,0.0666578327823,0.900000511025,3.58443082788,0.0,0.0,0.0
26,2.44654568578,0.748459391417,64.2804501955,2.00276819679,0.06667957149,114.106970059,2.67283029217,0.0652703751461,0.892181435902,3.59942199174,0.0,0.0,0.0
27,2.45858501756,0.768380403424,63.2197195564,1.99835504661,0.0661468676646,114.768925378,2.65635545218,0.0649700762024,0.884604680615,3.6172795117,0.0,0.0,0.0
28,2.47002004612,0.788016283195,62.2102655796,1.99421418834,0.0654708284561,115.413434009,2.64095610313,0.0643636412647,0.877316059777,3.63281773105,0.0,0.0,0.0
29,2.48090277885,0.807378563039,61.2478258782,1.99032163777,0.0646549461319,116.040775477,2.62653105617,0.0634575197361,0.870312018979,3.64597395624,0.0,0.0,0.0
30,2.49127909897,0.826477973041,60.328623797,1.98665628165,0.064529817871,116.651331554,2.61299164437,0.0638632864628,0.863529504414,3.66409820908,0.0,0.0,0.0
31,2.50118966511,0.845324515961,59.449299298,1.98319945182,0.0634628076808,117.245552555,2.60025984466,0.0624106136314,0.857066702388,3.67278932742,0.0,0.0,0.0
32,2.5106706547,0.863927534105,58.606851475,1.97993457377,0.0631298460251,117.823932554,2.58826672563,0.0623600349339,0.850806123126,3.68729357058,0.0,0.0,0.0
33,2.51975438158,0.882295768056,57.7985905044,1.97684687502,0.0627057114463,118.386991146,2.57695115832,0.0621105982387,0.844796054216,3.70016496685,0.0,0.0,0.0
34,2.52846981299,0.900437409663,57.0220972005,1.97392314143,0.0621923798628,118.935260097,2.56625873912,0.0616639267445,0.839023619126,3.71136888191,0.0,0.0,0.0
35,2.5368430042,0.918360149067,56.2751888321,1.9711515126,0.061591727945,119.469273605,2.55614088597,0.061023698943,0.833478406143,3.72087318201,0.0,0.0,0.0
36,2.54489746593,0.936071216468,55.5558900889,1.96852130914,0.0609055408542,119.989561255,2.54655407639,0.0601955836265,0.828153263923,3.72864818531,0.0,0.0,0.0
37,2.55265447685,0.953577420258,54.8624082671,1.96602288596,0.0601355192519,120.49664302,2.53745920164,0.0591871222487,0.823044981958,3.73466664036,0.0,0.0,0.0
38,2.56013335005,0.970885180604,54.1931120203,1.96364750736,0.0602551426031,120.991025748,2.52882101764,0.0598981837095,0.818064271774,3.75017452397,0.0,0.0,0.0
39,2.56735166175,0.988000560002,53.5465130488,1.96138723998,0.0593393792558,121.473200799,2.52060767583,0.0585634782505,0.813342286719,3.75309969939,0.0,0.0,0.0
40,2.57432544821,1.00492929085,52.9212502708,1.95923486067,0.0593501846281,121.943642525,2.51279032073,0.0590308262076,0.808738787993,3.76646039095,0.0,0.0,0.0
41,2.58106937585,1.02167680005,52.3160760997,1.95718377711,0.0582938777771,122.402807373,2.50534274374,0.0573904919167,0.804384028081,3.76621469407,0.0,0.0,0.0
42,2.58759688914,1.03824823187,51.7298444694,1.95522795886,0.0582001073955,122.851133482,2.4982410837,0.057617445256,0.800112711862,3.77736228184,0.0,0.0,0.0
43,2.5939203392,1.05464846827,51.1615003909,1.95336187742,0.0580637358005,123.289040603,2.49146356755,0.057753078182,0.796012329533,3.78763147706,0.0,0.0,0.0
44,2.60005109617,1.07088214721,50.6100707969,1.95158045401,0.0568135736989,123.716930275,2.48499028477,0.0556981007781,0.792165150934,3.78276184089,0.0,0.0,0.0
45,2.60599964793,1.08695367998,50.0746564724,1.9498790137,0.0565781758647,124.135186195,2.47880299035,0.0556063055233,0.788352126652,3.79074033933,0.0,0.0,0.0
46,2.6117756868,1.10286726649,49.5544249535,1.94825324521,0.0563025394673,124.544174709,2.47288493248,0.0554261946562,0.784684727173,3.79780789892,0.0,0.0,0.0
47,2.61738818586,1.11862690916,49.0486042499,1.94669916551,0.0559873391405,124.944245376,2.46722070144,0.0551586814851,0.781155588175,3.80395574414,0.0,0.0,0.0
48,2.62284546686,1.13423642628,48.5564772545,1.94521308844,0.0556332244624,125.335731616,2.46179609623,0.0548051166543,0.777758631553,3.80917599144,0.0,0.0,0.0
49,2.62815526003,1.14969946342,48.0773768027,1.94379159706,0.0552408214224,125.718951361,2.45659800726,0.0543672748057,0.77448914918,3.8134616107,0.0,0.0,0.0
50,2.63332475759,1.16501950475,47.610681239,1.94243151891,0.0548107338204,126.094207746,2.45161431217,0.0538473359255,0.771343873689,3.81680639805,0.0,0.0,0.0
51,2.63836066123,1.18019988263,47.1558104822,1.9411299042,0.0543435445155,126.461789779,2.44683378378,0.0532478615716,0.768321037941,3.8192049594,0.0,0.0,0.0
52,2.64326922472,1.19524378728,46.7122224766,1.93988400611,0.0550362568416,126.821973026,2.44224600789,0.0549026157692,0.765264530548,3.83889176503,0.0,0.0,0.0
53,2.6480562919,1.21015427486,46.2794100307,1.93869126338,0.0545114602056,127.175020259,2.43784131029,0.0541627786343,0.762431509745,3.83988027072,0.0,0.0,0.0
54,2.65272733095,1.22493427579,45.8568979499,1.93754928453,0.0539510655838,127.521182109,2.43361069139,0.0533486902286,0.759711241402,3.83990928413,0.0,0.0,0.0
55,2.65728746507,1.23958660158,45.4442404764,1.93645583381,0.0533555858439,127.86069767,2.42954576785,0.0524641920792,0.757107451977,3.83897617601,0.0,0.0,0.0
56,2.66174150028,1.25411395203,45.0410189528,1.93540881846,0.0527255179,128.193795105,2.42563872,0.0515133659678,0.75462553885,3.83707916614,0.0,0.0,0.0
57,2.66609395035,1.26851892108,44.6468397317,1.93440627728,0.0533311322144,128.520692201,2.42188224489,0.052946146467,0.752011923968,3.8549294753,0.0,0.0,0.0
58,2.67034905952,1.28280400285,44.2613322638,1.93344637026,0.0526476181386,128.841596918,2.41826951373,0.0518647501343,0.749676928606,3.8515887499,0.0,0.0,0.0
59,2.67451082303,1.29697159712,43.8841473661,1.93252736921,0.051930801096,129.1567079,2.41479413363,0.0507262336062,0.747472115183,3.84727972342,0.0,0.0,0.0
60,2.67858300572,1.31102401405,43.5149556558,1.93164764928,0.0524934604328,129.466214961,2.41145011304,0.052054451441,0.745100571872,3.86418575173,0.0,0.0,0.0
61,2.68256915904,1.3249634793,43.1534461073,1.93080568118,0.0517253074171,129.770299552,2.40823183036,0.0507933300228,0.743030480555,3.85842327119,0.0,0.0,0.0
62,2.68647263646,1.33879213798,42.7993247531,1.93000002422,0.0522651649631,130.069135194,2.40513400557,0.0520813509542,0.740855606568,3.87485153337,0.0,0.0,0.0
63,2.69029660757,1.35251205898,42.4523134832,1.92922931985,0.0514469115763,130.362887889,2.40215167441,0.0507018753776,0.738911737574,3.86763214168,0.0,0.0,0.0
64,2.694044071,1.36612523884,42.1121489497,1.92849228583,0.0505972375048,130.651716522,2.39928016491,0.0492829292957,0.737127787425,3.85944584669,0.0,0.0,0.0
65,2.6977178662,1.37963360512,41.7785815694,1.9277877109,0.051097547367,130.935773217,2.39651507596,0.0504534879888,0.735086262736,3.87489540232,0.0,0.0,0.0
66,2.70132068419,1.39303901987,41.4513746001,1.92711444985,0.0501996107633,131.215203691,2.39385225783,0.0489289275214,0.733439855694,3.86525354363,0.0,0.0,0.0
67,2.70485507758,1.40634328289,41.1303032928,1.92647141906,0.0506790436646,131.490147584,2.39128779432,0.0500512866353,0.731531022632,3.88020656193,0.0,0.0,0.0
68,2.70832346963,1.4195481344,40.8151541187,1.92585759235,0.0497339250727,131.760738764,2.3888179864,0.0484280614059,0.730027537759,3.86911205928,0.0,0.0,0.0
69,2.71172816262,1.43265525802,40.5057240484,1.92527199725,0.050193133608,132.027105621,2.38643933731,0.049499829741,0.728229746152,3.88356314804,0.0,0.0,0.0
70,2.71507134565,1.4456662834,40.2018198891,1.92471371144,0.0506489753379,132.289371346,2.38414853875,0.050593581982,0.726594834816,3.89800146213,0.0,0.0,0.0
71,2.71835510171,1.45858278847,39.9032576778,1.92418185958,0.0496414627212,132.547654184,2.38194245838,0.0488050193562,0.725173009604,3.88496640941,0.0,0.0,0.0
72,2.72158141429,1.47140630193,39.6098621136,1.92367561037,0.0500778986148,132.802067684,2.37981812811,0.049844252183,0.72361959432,3.89889607988,0.0,0.0,0.0
73,2.72475217351,1.48413830542,39.321466033,1.92319417374,0.0490255961322,133.05272093,2.37777273348,0.0479739742289,0.722358247863,3.88442116012,0.0,0.0,0.0
74,2.7278691817,1.49678023544,39.0379099291,1.92273679839,0.0494431974239,133.299718756,2.37580360382,0.0489573619954,0.720868501242,3.89784009986,0.0,0.0,0.0
75,2.73093415864,1.50933348536,38.7590414994,1.92230276942,0.0483470250203,133.543161954,2.3739082031,0.0470148774821,0.719789701166,3.8819357748,0.0,0.0,0.0
76,2.73394874646,1.52179940738,38.484715227,1.92189140613,0.0487463338338,133.783147469,2.37208412159,0.0479416288312,0.718347653147,3.89484263733,0.0,0.0,0.0
77,2.73691451408,1.53417931403,38.2147919956,1.92150206006,0.0491428874001,134.019768579,2.37032906806,0.0488849119024,0.717039905575,3.90772619573,0.0,0.0,0.0
78,2.73983296144,1.54647447995,37.9491387257,1.92113411307,0.0479887040531,134.253115073,2.36864086257,0.046806646671,0.716069852365,3.88991632161,0.0,0.0,0.0
79,2.74270552336,1.55868614342,37.6876280391,1.92078697563,0.048367644561,134.48327341,2.36701742983,0.0476911172988,0.714787053894,3.9022869497,0.0,0.0,0.0
80,2.74553357323,1.57081550785,37.4301379438,1.92046008519,0.0487440312449,134.710326879,2.365456793,0.048590645605,0.713629219644,3.91462977482,0.0,0.0,0.0
81,2.7483184263,1.58286374308,37.1765515434,1.92015290469,0.0475334522219,134.93435574,2.36395706791,0.0463886818042,0.712784704885,3.89493540637,0.0,0.0,0.0
82,2.75106134294,1.59483198681,36.9267567624,1.91986492112,0.0478928589404,135.155437364,2.36251645776,0.0472278696826,0.711631699118,3.90676621975,0.0,0.0,0.0
83,2.75376353152,1.60672134583,36.6806460895,1.91959564424,0.0482498967489,135.373646368,2.36113324812,0.0480806232454,0.710594690231,3.9185660596,0.0,0.0,0.0
84,2.75642615117,1.61853289714,36.4381163414,1.91934460537,0.0469844449458,135.589054732,2.35980580231,0.0457686104509,0.70990251223,3.8970119841,0.0,0.0,0.0
85,2.75905031441,1.63026768915,36.1990684363,1.9191113562,0.0473250945637,135.801731922,2.35853255705,0.0465601647109,0.708852862583,3.90830200417,0.0,0.0,0.0
86,2.7616370895,1.64192674273,35.9634071853,1.91889546775,0.0476635455687,136.011744997,2.35731201848,0.0473638049651,0.707910663426,3.91955902743,0.0,0.0,0.0
87,2.76418750276,1.65351105231,35.7310410949,1.91869652937,0.0463446606159,136.219158721,2.35614275837,0.0449566220583,0.707407203995,3.89617409896,0.0,0.0,0.0
88,2.76670254063,1.66502158671,35.5018821834,1.9185141478,0.0466672781966,136.424035652,2.35502341061,0.0456988711485,0.706437525663,3.9069243494,0.0,0.0,0.0
89,2.76918315172,1.67645929018,35.2758458068,1.91834794628,0.04698785447,136.626436247,2.35395266791,0.0464517663217,0.705567203213,3.91764054916,0.0,0.0,0.0
90,2.77163024865,1.68782508325,35.0528504958,1.91819756374,0.0473064152367,136.826418947,2.35292927875,0.0472155749793,0.70479548426,3.9283194786,0.0,0.0,0.0
91,2.77404470983,1.6991198636,34.8328178025,1.91806265403,0.0459221649793,137.024040264,2.35195204446,0.0446571063764,0.704387858441,3.90267137337,0.0,0.0,0.0
92,2.77642738107,1.71034450681,34.6156721564,1.91794288516,0.0462255337149,137.219354858,2.35101981657,0.0453583311736,0.703569525265,3.91285006845,0.0,0.0,0.0
93,2.77877907718,1.7214998672,34.4013407285,1.91783793867,0.0465270299415,137.41241562,2.35013149421,0.0460690447107,0.702842205836,3.92299158878,0.0,0.0,0.0
94,2.78110058343,1.7325867785,34.1897533024,1.91774750892,0.0468266761929,137.603273742,2.34928602181,0.0467894722372,0.702205149451,3.93309308742,0.0,0.0,0.0
95,2.78339265689,1.7436060546,33.980842155,1.91767130256,0.0453791430665,137.791978784,2.34848238678,0.0440991447876,0.701937275164,3.90523480262,0.0,0.0,0.0
96,2.78565602779,1.75455849017,33.774541941,1.91760903789,0.0456641914398,137.978578747,2.34771961747,0.0447566089401,0.70123791973,3.91484377895,0.0,0.0,0.0
97,2.78789140071,1.76544486138,33.5707895862,1.91756044436,0.0459475204201,138.163120127,2.34699678118,0.0454224070905,0.700621769165,3.92441375946,0.0,0.0,0.0
98,2.79009945578,1.77626592642,33.3695241855,1.91752526207,0.0462291497405,138.345647984,2.34631298229,0.0460967253029,0.700088096765,3.93394223902,0.0,0.0,0.0
99,2.79228084971,1.78702242615,33.1706869068,1.91750324127,0.0447202874519,138.526205989,2.34566736052,0.0432959245654,0.700018707053,3.90393222246,0.0,0.0,0.0
100,2.7944362169,1.79771508467,32.9742209001,1.91749414191,0.0449878714988,138.70483649,2.34505908926,0.0439077005488,0.699410367005,3.91297650065,0.0,0.0,0.0
101,2.79656615989,1.8083445573,32.7800721671,1.91749773318,0.0452538743174,138.881579681,2.34448737679,0.044526683985,0.698877985391,3.92198098653,0.0,0.0,0.0
102,2.79867126141,1.81891148558,32.5881884673,1.9175137929,0.0455183119621,139.05647458,2.3439514613,0.045153022328,0.698420876011,3.93094343996,0.0,0.0,0.0
103,2.8007521293,1.82941672082,32.3985152263,1.91754210788,0.0457812057368,139.229562733,2.34345059926,0.0457868802003,0.698038320361,3.93986183971,0.0,0.0,0.0
104,2.80280934447,1.83986106174,32.2110002824,1.91758247372,0.044200872872,139.400883881,2.34298407886,0.0428293983432,0.698081204299,3.90733384714,0.0,0.0,0.0
105,2.80484162724,1.85023586324,32.0257610219,1.91763464156,0.0444501173525,139.570322967,2.3425515957,0.0434000258901,0.697609847138,3.91577382176,0.0,0.0,0.0
106,2.80684886323,1.86053835206,31.8428085667,1.91769836686,0.0446976245913,139.737861955,2.34215254229,0.0439761945474,0.697207457369,3.92416204332,0.0,0.0,0.0
107,2.80883340676,1.87077853375,31.6619289896,1.91777349807,0.0449436349623,139.90368936,2.34178585781,0.044558528458,0.69687286224,3.93250425442,0.0,0.0,0.0
108,2.81079603664,1.8809584933,31.4830519382,1.9178598622,0.0451881985551,140.067862862,2.34145086385,0.0451472283757,0.696605292871,3.94079980271,0.0,0.0,0.0
109,2.81273748584,1.89108017474,31.306111207,1.91795729831,0.043538388932,140.230436742,2.34114692533,0.0420600529689,0.696843592264,3.90583195911,0.0,0.0,0.0
110,2.81465844401,1.90114538621,31.131044516,1.91806565656,0.0437701205274,140.391462048,2.34087344727,0.0425868908269,0.696476239443,3.91367112696,0.0,0.0,0.0
111,2.81655955974,1.91115580493,30.9577933003,1.9181847972,0.0440005906281,140.55098676,2.34062987178,0.0431191321264,0.696170485114,3.92146969141,0.0,0.0,0.0
112,2.81844144284,1.9211129822,30.7863025087,1.91831458976,0.0442298349497,140.709055948,2.34041567523,0.0436569314469,0.695925732628,3.92922680595,0.0,0.0,0.0
113,2.82030466643,1.93101834834,30.616520413,1.91845491218,0.0444578864223,140.86571192,2.34023036559,0.0442004429088,0.695741396801,3.93694156065,0.0,0.0,0.0
114,2.82214976895,1.94087321758,30.4483984254,1.91860565009,0.0446847753036,141.020994369,2.34007347997,0.0447498201853,0.695616901138,3.94461298541,0.0,0.0,0.0
115,2.82397725612,1.95067879288,30.2818909252,1.91876669601,0.042957897872,141.174940509,2.3399445823,0.0414993899244,0.695981764395,3.90695019166,0.0,0.0,0.0
116,2.82578760268,1.96043617073,30.1169550936,1.91893794878,0.0431727750618,141.327585208,2.33984326112,0.0419878369826,0.69574630247,3.91419100025,0.0,0.0,0.0
117,2.82758125422,1.97014634578,29.9535507573,1.91911931285,0.0433866127506,141.478961116,2.3397691276,0.0424811474376,0.695566105265,3.92139326398,0.0,0.0,0.0
118,2.82935862877,1.97981021549,29.7916402381,1.91931069771,0.0435994307021,141.629098783,2.33972181363,0.04297943268,0.695440707281,3.92855588344,0.0,0.0,0.0
119,2.83112011836,1.98942858458,29.6311882118,1.91951201737,0.0438112466381,141.778026774,2.33970097001,0.0434828029429,0.695369641828,3.93567771314,0.0,0.0,0.0
120,2.83286609055,1.99900216949,29.4721615728,1.91972318983,0.0440220763359,141.925771782,2.33970626481,0.0439913673152,0.695352439041,3.94275756532,0.0,0.0,0.0
121,2.83459688981,2.00853160267,29.3145293059,1.91994413659,0.0442319337231,142.072358734,2.33973738182,0.0445052337564,0.695388624034,3.94979421388,0.0,0.0,0.0
