,theta i [rad],r orb [AU],v orb [km s-1],ang orb [rad],r L1 [AU],v i [km s-1],ang i [rad],a p [AU],e p,theta p i [rad],flag impact,v imp [km s-1],ang imp [rad]
0,0.0,0.11565,180.763740044,1.57079632679,0.0548729764827,18.0763740044,1.57079632679,0.0277165110419,0.9797937915,3.14159265359,1.0,591.365536093,1.20169255512
1,0.514373637361,0.123366844578,174.824967381,1.81925368086,0.0568055576635,43.5206978648,2.98541790371,0.0302358457941,0.997240614423,3.16027525865,1.0,593.616713263,1.43100890879
2,0.92573954532,0.143266028781,161.765020798,2.01710423831,0.0606621962181,71.8090459986,3.37727286653,0.0368211373346,0.984039701561,3.06016576095,1.0,598.021325217,1.19624947243
3,1.22267282878,0.169698812795,148.064169586,2.15887284542,0.062681547678,91.1428290574,3.58979753282,0.0443542635388,0.918842658924,2.88951900687,1.0,601.433686718,1.08735579658
4,1.43593417642,0.198851032303,136.198446052,2.25977970421,0.0619045802234,103.972871047,3.72824346742,0.0496892395915,0.843845200195,2.71692043515,0.0,0.0,0.0
5,1.59390992796,0.228818050014,126.406441863,2.33379690153,0.0593232031017,112.777691102,3.8262919936,0.0515990730326,0.780373294365,2.57851074658,0.0,0.0,0.0
6,1.71527595927,0.258726984736,118.347303869,2.32230570318,0.0629335959386,111.07478425,3.88840504539,0.0559418884721,0.738752704437,2.50995870573,0.0,0.0,0.0
7,1.81162659298,0.288188864222,111.639384589,2.27808340082,0.0689460897176,106.391629569,3.73562370457,0.0615306932975,0.831431935471,2.62877981721,0.0,0.0,0.0
8,1.89025406312,0.317038987659,105.974109711,2.24237265245,0.0736266769393,103.461535805,3.60497928962,0.0662212392241,0.89593931742,2.73402586388,0.0,0.0,0.0
9,1.95589351593,0.345218555994,101.120009166,2.21287391483,0.0770608039763,101.699770747,3.49277297965,0.0699413669999,0.939620043807,2.827688068,1.0,607.487790594,1.26823474372
10,2.01172876663,0.372719552319,96.9059661816,2.18804574278,0.0794687386353,100.72462494,3.39588512123,0.0728133794313,0.968114618322,2.91105311409,1.0,607.899530191,0.793022825106
11,2.05997201016,0.399558197116,93.2047820418,2.16682028257,0.081191510845,100.2840934,3.31172046709,0.0751906847108,0.985655757412,2.98517408838,1.0,608.216363686,1.06155090327
12,2.10220629712,0.425761768664,89.9206999513,2.14843558805,0.0822542810197,100.209615519,3.23814495311,0.0769344723415,0.995364767914,3.05173740581,1.0,608.436219683,1.28605311643
13,2.13959428512,0.451361918067,86.980553141,2.13233363553,0.082681918378,100.386929265,3.17341630359,0.0779287636629,0.999495554516,3.11171069519,1.0,608.557141036,1.47731518132
14,2.17300958251,0.476391254146,84.3275874349,2.11809628987,0.0824981906782,100.737577323,3.11611636506,0.0780845796026,0.999676533837,3.16562862337,1.0,608.575809437,1.49590271596
15,2.20312189797,0.500881619849,81.9171408371,2.10540387479,0.0822268180538,101.20704247,3.0650905292,0.0782485260856,0.997082710881,3.21419769018,1.0,608.59537108,1.34407058948
16,2.23045378131,0.52486326355,79.7135917226,2.09400761899,0.0819606353832,101.757037331,3.01939636514,0.0785361698626,0.992557549425,3.25843410663,1.0,608.62949309,1.20331009713
17,2.25541938664,0.548364488135,77.6881749925,2.08371086776,0.0812391891207,102.360425021,2.97826149067,0.0780585792316,0.986713337197,3.29820893411,1.0,608.572699537,1.07251777842
18,2.27835155616,0.571411555117,75.8173973125,2.07435597954,0.0806496846907,102.997826472,2.94104969708,0.0778614398695,0.97998452779,3.33485637824,1.0,608.549051638,0.946082295753
19,2.29952113171,0.594028722714,74.0818708409,2.06581499948,0.0796795341592,103.655323484,2.90723400696,0.0769695872444,0.972697838007,3.36754573472,1.0,608.440543836,0.825721906592
20,2.31915097982,0.616238351301,72.465443205,2.05798289803,0.0789574722603,104.322883235,2.87637535592,0.0765390587307,0.965071105257,3.39822788378,1.0,608.387251243,0.8684716335
21,2.33742634678,0.63806103768,70.9545401602,2.05077258721,0.078560073563,104.993264148,2.84810574929,0.0767152213374,0.957266243988,3.4278120214,1.0,608.409130244,1.00393596429
22,2.35450262161,0.659515759471,69.5376627932,2.04411119079,0.0772405903435,105.661247203,2.8221149364,0.0751227719788,0.949440867116,3.45174463797,1.0,608.207593134,1.13490638465
23,2.37051123555,0.680620017429,68.204998619,2.03793721445,0.0763057536342,106.323089969,2.79813983925,0.0742354481838,0.941644409724,3.47507217917,1.0,608.091513742,1.31068235068
24,2.38556420237,0.70138997045,66.9481175553,2.03219837146,0.0758259487126,106.976134924,2.77595613274,0.0741865735776,0.933929787945,3.49876911822,0.0,0.0,0.0
25,2.39975765307,0.721840560567,65.759731898,2.02684989262,0.0751465708518,107.618525844,2.75537150746,0.0737319927089,0.92636731982,3.52001232062,0.0,0.0,0.0
26,2.413174617,0.741985627132,64.633505073,2.02185319863,0.0742728415635,108.249000704,2.73622025165,0.0728738365549,0.918986785487,3.53872676222,0.0,0.0,0.0
27,2.4258872314,0.761838009742,63.5638979626,2.01717484689,0.0732096646355,108.866739275,2.71835887137,0.0716216774828,0.911811032883,3.55483929308,0.0,0.0,0.0
28,2.43795851308,0.781409641326,62.5460443924,2.01278568839,0.0727438465454,109.471250207,2.7016625303,0.0714875637271,0.904812377034,3.57325122959,0.0,0.0,0.0
29,2.44944379078,0.800711631622,61.5756495089,2.00866018708,0.0721361891108,110.062286849,2.6860221407,0.0710538972367,0.898035169491,3.58970048517,0.0,0.0,0.0
30,2.46039187191,0.819754341372,60.648906285,2.00477586619,0.0713900238189,110.639784136,2.67134197425,0.0703236245261,0.891481210357,3.60413582229,0.0,0.0,0.0
31,2.47084600048,0.838547449411,59.7624264085,2.00111285448,0.0705085003667,111.203811079,2.6575376887,0.0693038267126,0.885152101885,3.61650857627,0.0,0.0,0.0
32,2.4808446485,0.857100012387,58.9131827692,1.99765351174,0.0703525597047,111.754534849,2.64453469062,0.0696683747575,0.879001723595,3.63332310638,0.0,0.0,0.0
33,2.49042217401,0.875420518344,58.0984613002,1.99438211801,0.069227454553,112.292193545,2.63226676982,0.0681199534828,0.873109385498,3.64183906005,0.0,0.0,0.0
34,2.49960937155,0.893516934769,57.3158204354,1.99128461382,0.0688696798197,112.817075511,2.6206749553,0.0680414914512,0.867383981094,3.6555265097,0.0,0.0,0.0
35,2.50843393523,0.91139675175,56.5630568025,1.98834838212,0.0684231857431,113.329503597,2.60970655215,0.0677698607129,0.861865917092,3.66780592026,0.0,0.0,0.0
36,2.51692085025,0.929067020781,55.8381760503,1.98556206405,0.0678897884949,113.8298232,2.5993143274,0.0673065485986,0.856546761627,3.67864984109,0.0,0.0,0.0
37,2.52509272563,0.946534389722,55.1393679281,1.98291540267,0.0672712190922,114.318393175,2.58945581879,0.0666548314342,0.851419496183,3.68803266235,0.0,0.0,0.0
38,2.53297007823,0.963805134342,54.4649849049,1.98039910966,0.0665691296154,114.795578949,2.58009274555,0.065819724584,0.846479137254,3.69593059895,0.0,0.0,0.0
39,2.54057157644,0.980885186899,53.8135237462,1.97800475124,0.0657850988507,115.26174734,2.57119050411,0.0648078911241,0.841723273734,3.702321684,0.0,0.0,0.0
40,2.54791424976,0.997780161668,53.1836095934,1.97572465003,0.0649206373888,115.717262665,2.56271773507,0.0636275126446,0.837152530178,3.70718578622,0.0,0.0,0.0
41,2.55501367033,1.01449537875,52.5739821175,1.97355180028,0.0649927031929,116.16248388,2.55464594967,0.064242709634,0.832660640521,3.72077438923,0.0,0.0,0.0
42,2.56188411023,1.03103588515,51.9834834779,1.97147979446,0.0639882193618,116.597762478,2.5469492068,0.0627554959216,0.82842138987,3.72295209995,0.0,0.0,0.0
43,2.56853867845,1.04740647394,51.4110477955,1.96950275941,0.0639557569369,117.023440991,2.53960383283,0.0631366866261,0.824243749939,3.73466849591,0.0,0.0,0.0
44,2.57498944076,1.06361170223,50.8556919036,1.96761530058,0.0638805889993,117.439851972,2.53258817726,0.0634299558935,0.820227983213,3.74564227687,0.0,0.0,0.0
45,2.58124752471,1.07965590717,50.3165072286,1.9658124532,0.0626827316372,117.847317321,2.52588239969,0.0615169640902,0.816436814491,3.74389724039,0.0,0.0,0.0
46,2.58732321183,1.09554322041,49.7926526277,1.9640896395,0.0625084783384,118.246147883,2.51946828316,0.0615820071669,0.81268958028,3.75292870837,0.0,0.0,0.0
47,2.59322601924,1.11127758208,49.2833480335,1.96244263085,0.0622938447444,118.63664328,2.51332906992,0.0615592742641,0.809079687764,3.76118781697,0.0,0.0,0.0
48,2.59896477155,1.12686275266,48.7878688421,1.96086751449,0.0620394972033,119.019091873,2.50744931719,0.0614488285218,0.805599686049,3.76866640456,0.0,0.0,0.0
49,2.60454766485,1.14230232474,48.3055408985,1.95936066392,0.0617460779304,119.393770867,2.50181476937,0.0612511327432,0.802242889968,3.7753570475,0.0,0.0,0.0
50,2.60998232347,1.15759973338,47.8357360386,1.95791871268,0.0614142063988,119.760946503,2.49641224523,0.0609670477903,0.79900346582,3.78125302559,0.0,0.0,0.0
51,2.61527585057,1.17275826548,47.3778681104,1.95653853104,0.0610444806157,120.120874299,2.49122953763,0.0605978262,0.7958765059,3.78634828988,0.0,0.0,0.0
52,2.62043487352,1.18778106919,46.9313893879,1.95521720505,0.0606374783436,120.473799369,2.48625532431,0.060145101256,0.792858092745,3.79063743579,0.0,0.0,0.0
53,2.62546558425,1.20267116159,46.4957873803,1.953952018,0.0601937581811,120.819956738,2.48147908843,0.0596108715144,0.789945354432,3.79411568063,0.0,0.0,0.0
54,2.63037377576,1.21743143663,46.07058194,1.95274043363,0.0597138606054,121.159571711,2.47689104753,0.0589974813154,0.787136511396,3.79677884939,0.0,0.0,0.0
55,2.63516487477,1.23206467217,45.6553226621,1.95158008114,0.0591983089297,121.492860232,2.47248208989,0.0583075975497,0.784430915707,3.79862336842,0.0,0.0,0.0
56,2.63984397118,1.24657353627,45.2495865445,1.95046874166,0.0586476101782,121.820029259,2.46824371749,0.0575441831383,0.781829083406,3.7996462681,0.0,0.0,0.0
57,2.64441584476,1.26096059359,44.8529758542,1.94940433609,0.0593244787408,122.141277133,2.4641679947,0.0591697074023,0.779191219755,3.81691320289,0.0,0.0,0.0
58,2.64888498915,1.27522831067,44.4651162118,1.94838491404,0.0587192278886,122.456793946,2.4602475021,0.0582714417838,0.776741273113,3.81670662334,0.0,0.0,0.0
59,2.65325563377,1.28937906155,44.0856548325,1.94740864388,0.0580801442907,122.766761908,2.45647529473,0.0573059765251,0.774391973948,3.81567113701,0.0,0.0,0.0
60,2.65753176355,1.30341513232,43.7142589457,1.94647380369,0.0574076798856,123.071355688,2.45284486446,0.0562772539321,0.772148035829,3.81380588971,0.0,0.0,0.0
61,2.66171713703,1.31733872589,43.3506143404,1.94557877306,0.0580209312538,123.370742764,2.44935010587,0.0577440721835,0.769822694439,3.82985996541,0.0,0.0,0.0
62,2.66581530278,1.33115196626,42.9944240414,1.94472202556,0.0572968377771,123.665083749,2.44598528524,0.0565883785799,0.767706535685,3.82674902122,0.0,0.0,0.0
63,2.66982961428,1.34485690231,42.6454071079,1.94390212202,0.0565405368308,123.954532707,2.4427450125,0.0553783083634,0.76570309741,3.82280625937,0.0,0.0,0.0
64,2.67376324378,1.35845551184,42.3032975184,1.9431177042,0.0571122501441,124.239237459,2.4396242156,0.0567411777194,0.763584280667,3.83803076036,0.0,0.0,0.0
65,2.67761919467,1.37194970469,41.967843166,1.94236748918,0.0563062505465,124.519339875,2.43661811727,0.0554119763727,0.761699850464,3.83283684318,0.0,0.0,0.0
66,2.68140031302,1.38534132627,41.6388049231,1.94165026415,0.0568558566373,124.794976147,2.43372221369,0.0567348966906,0.759749539272,3.84763844318,0.0,0.0,0.0
67,2.68510929817,1.39863216064,41.3159557842,1.94096488162,0.05600129413,125.066277065,2.43093225505,0.0552906871917,0.757977609017,3.84119190295,0.0,0.0,0.0
68,2.68874871234,1.41182393319,40.9990800854,1.94031025502,0.0551162560673,125.333368257,2.42824422782,0.0538087637307,0.756342166178,3.83391671749,0.0,0.0,0.0
69,2.69232098955,1.42491831349,40.6879727753,1.93968535474,0.055627448091,125.59637044,2.42565433842,0.0550160946288,0.75451298299,3.84786462943,0.0,0.0,0.0
70,2.69582844389,1.43791691792,40.382438744,1.93908920436,0.0546955448495,125.855399649,2.42315899823,0.0534311537222,0.752998739195,3.8393398749,0.0,0.0,0.0
71,2.69927327701,1.45082131187,40.0822922111,1.93852087728,0.0551864026774,126.110567448,2.42075480991,0.0545911746407,0.751287470966,3.85285161569,0.0,0.0,0.0
72,2.70265758516,1.46363301213,39.7873561502,1.93797949355,0.0542086365156,126.361981144,2.41843855475,0.0529097030877,0.74989822876,3.84308074372,0.0,0.0,0.0
73,2.70598336566,1.47635348898,39.4974617612,1.93746421697,0.0546797652879,126.609743978,2.41620718103,0.0540201731365,0.748287592396,3.85615256116,0.0,0.0,0.0
74,2.70925252287,1.48898416829,39.2124479792,1.93697425241,0.0536570935892,126.853955321,2.41405779324,0.0522494040001,0.747030959274,3.84514082702,0.0,0.0,0.0
75,2.71246687374,1.50152643328,38.9321610218,1.9365088433,0.0541090671022,127.094710841,2.4119876423,0.0533085258247,0.745504956722,3.85777005376,0.0,0.0,0.0
76,2.71562815295,1.51398162639,38.6564539659,1.93606726933,0.0545579028898,127.332102676,2.40999411628,0.0543875000327,0.744110378603,3.87037827702,0.0,0.0,0.0
77,2.7187380177,1.52635105103,38.3851863533,1.93564884433,0.0534757689989,127.566219596,2.408074732,0.0524627532169,0.742936278598,3.85770943874,0.0,0.0,0.0
78,2.72179805216,1.5386359731,38.1182238286,1.93525291427,0.0539061716738,127.79714715,2.40622712723,0.053487170611,0.741604207261,3.86987174627,0.0,0.0,0.0
79,2.72480977155,1.55083762251,37.8554377975,1.93487885541,0.0527812668827,128.024967814,2.40444905334,0.0514903349687,0.740583346083,3.85597878061,0.0,0.0,0.0
80,2.72777462609,1.56295719479,37.5967051076,1.93452607258,0.0531937448179,128.249761125,2.40273836861,0.0524593678823,0.73930072724,3.86769470024,0.0,0.0,0.0
81,2.73069400445,1.57499585219,37.3419077564,1.93419399761,0.0536034688939,128.471603811,2.40109303198,0.0534450604675,0.738134286346,3.87938321442,0.0,0.0,0.0
82,2.73356923724,1.58695472522,37.0909326118,1.9338820878,0.0524219343236,128.690569917,2.3995110972,0.0513128509173,0.737208123859,3.86385849554,0.0,0.0,0.0
83,2.73640160002,1.59883491372,36.8436711551,1.93358982454,0.052814372983,128.906730916,2.39799070746,0.052240995112,0.736072524194,3.8751004754,0.0,0.0,0.0
84,2.7391923163,1.61063748819,36.6000192378,1.93331671205,0.0532042478153,129.120155829,2.39653009029,0.0531844207455,0.735045528248,3.88631134161,0.0,0.0,0.0
85,2.74194256025,1.62236349073,36.3598768575,1.93306227611,0.051967605773,129.330911319,2.39512755291,0.0509277923014,0.734224729577,3.86917358401,0.0,0.0,0.0
86,2.74465345922,1.63401393623,36.1231479441,1.93282606296,0.0523407932163,129.539061802,2.39378147782,0.0518120762317,0.733211941986,3.8799392599,0.0,0.0,0.0
87,2.7473260962,1.64558981331,35.8897401615,1.93260763824,0.0527115920816,129.744669535,2.39249031873,0.0527102396693,0.732300457554,3.89067112901,0.0,0.0,0.0
88,2.74996151204,1.65709208534,35.6595647204,1.93240658598,0.0514212823983,129.947794711,2.39125259671,0.0503416118384,0.73160321184,3.87194190844,0.0,0.0,0.0
89,2.75256070754,1.66852169129,35.4325362041,1.93222250767,0.0517759548554,130.148495543,2.39006689662,0.0511796340373,0.73069130807,3.88223106752,0.0,0.0,0.0
90,2.75512464548,1.67987954665,35.208572403,1.93205502139,0.0521284008176,130.346828344,2.3889318638,0.0520301363701,0.729873725251,3.89248461646,0.0,0.0,0.0
91,2.75765425243,1.69116654428,34.9875941588,1.93190376101,0.050785788594,130.54284761,2.38784620087,0.0495631173036,0.729325445358,3.8721884772,0.0,0.0,0.0
92,2.76015042053,1.7023835551,34.7695252208,1.93176837538,0.0511226357659,130.73660609,2.38680866484,0.0503530770487,0.728494812944,3.8820026281,0.0,0.0,0.0
93,2.76261400914,1.71353142898,34.5542921067,1.93164852762,0.0514574067533,130.928154858,2.38581806434,0.0511541444199,0.72775186618,3.89178013117,0.0,0.0,0.0
94,2.76504584639,1.72461099539,34.3418239739,1.93154389447,0.0500637891392,131.117543379,2.38487325705,0.0486032244119,0.72738482591,3.86994491466,0.0,0.0,0.0
95,2.76744673063,1.73562306411,34.1320524968,1.93145416559,0.0503834588017,131.304819576,2.38397314724,0.0493439322695,0.72661816312,3.8792869142,0.0,0.0,0.0
96,2.76981743181,1.74656842588,33.9249117527,1.931379043,0.0507011920265,131.490029886,2.3831166835,0.0500944236453,0.725932913319,3.88859187527,0.0,0.0,0.0
97,2.7721586928,1.75744785308,33.720338112,1.9313182405,0.0510170112343,131.673219326,2.3823028566,0.0508549251344,0.725328420559,3.89785746244,0.0,0.0,0.0
98,2.77447123061,1.76826210026,33.5182701357,1.93127148313,0.0495609062039,131.854431539,2.38153069747,0.0481655216755,0.725068106247,3.87412299321,0.0,0.0,0.0
99,2.77675573756,1.77901190478,33.3186484787,1.93123850666,0.0498622020264,132.033708853,2.3807992753,0.0488649166422,0.724425893807,3.88295984418,0.0,0.0,0.0
100,2.77901288233,1.78969798736,33.121415797,1.93121905712,0.0501617118484,132.211092332,2.38010769571,0.0495730235564,0.723858569831,3.89175770678,0.0,0.0,0.0
101,2.78124331108,1.80032105258,32.9265166616,1.93121289032,0.0504594554181,132.386621819,2.37945509912,0.0502900332139,0.72336548887,3.90051450671,0.0,0.0,0.0
102,2.78344763155,1.81088170874,32.7338989429,1.93121977137,0.0489427553885,132.560334662,2.37884066366,0.0474809635753,0.723250226949,3.87492998728,0.0,0.0,0.0
103,2.78562645338,1.82138065591,32.5435102988,1.93123947421,0.0492265107176,132.732268853,2.37826359242,0.0481368233776,0.722708001258,3.88326555873,0.0,0.0,0.0
104,2.78778039433,1.83181871589,32.3552976278,1.93127178201,0.0495086204466,132.902463504,2.37772311221,0.0488003436783,0.722234561387,3.89156116957,0.0,0.0,0.0
105,2.78991004293,1.8421966495,32.169210339,1.93131648672,0.0497891051389,133.070955883,2.377218483,0.0494716901759,0.721829284577,3.8998150756,0.0,0.0,0.0
106,2.7920127357,1.85249931834,31.9854819483,1.93137329158,0.0500675556482,133.237525918,2.37674969195,0.0501499778699,0.721492000908,3.9080129147,0.0,0.0,0.0
107,2.79409099193,1.86273691903,31.8038930635,1.93144201719,0.0484796460448,133.402364024,2.37631552234,0.0471719153468,0.72144605818,3.88024717904,0.0,0.0,0.0
108,2.79614604906,1.87291356563,31.6243362665,1.93152248595,0.0487445037141,133.56555994,2.37591513172,0.047787907742,0.721046447687,3.8880293651,0.0,0.0,0.0
109,2.7981786852,1.88303122344,31.4467442409,1.93161452332,0.0490078261395,133.727167522,2.37554781948,0.0484105435323,0.720709139143,3.89576873095,0.0,0.0,0.0
110,2.8001896331,1.89309172418,31.271053603,1.93171796661,0.0492696609936,133.88723747,2.3752129288,0.0490400277303,0.720433480109,3.90346464773,0.0,0.0,0.0
111,2.80217958259,1.90309677078,31.0972046929,1.93183266408,0.047625050831,134.045817487,2.3749098434,0.0459867443576,0.720639874105,3.87397244469,0.0,0.0,0.0
112,2.80414918284,1.91304794214,30.9251413761,1.93195847392,0.0478740791433,134.202952431,2.37463798455,0.0465561288416,0.720295238371,3.88127067479,0.0,0.0,0.0
113,2.80609904459,1.92294669785,30.7548108534,1.93209526349,0.0481217957526,134.358684455,2.3743968082,0.0471314295305,0.720007661485,3.88852978085,0.0,0.0,0.0
114,2.80802974221,1.93279438288,30.5861634806,1.93224290843,0.0483682343168,134.513053151,2.37418580235,0.0477128065846,0.719776623297,3.89574895185,0.0,0.0,0.0
115,2.80994181569,1.94259223223,30.4191525964,1.93240129192,0.0486134257422,134.666095675,2.37400448455,0.0483004197038,0.719601610914,3.90292732034,0.0,0.0,0.0
116,2.81183577257,1.95234137554,30.2537343586,1.93257030403,0.0488573982975,134.817846881,2.37385239955,0.0488944281447,0.719482116341,3.9100639656,0.0,0.0,0.0
117,2.81371208965,1.96204284157,30.0898675881,1.93274984098,0.0471361708859,134.968339439,2.37372911718,0.0456594422505,0.719746973224,3.87823887982,0.0,0.0,0.0
118,2.81557121479,1.97169756265,29.9275136206,1.93293980456,0.0473681161371,135.11760395,2.37363423025,0.0461934801824,0.719547244259,3.8849992229,0.0,0.0,0.0
119,2.8174135685,1.98130637906,29.766636165,1.93314010156,0.0475989585733,135.265669064,2.37356735264,0.0467329200807,0.719399133444,3.89172117071,0.0,0.0,0.0
120,2.81923954548,1.99087004327,29.6072011698,1.93335064319,0.0478287162722,135.412561577,2.37352811758,0.0472778794874,0.719302215028,3.89840368488,0.0,0.0,0.0
121,2.82104951609,2.00038922417,29.4491766945,1.93357134462,0.0480574053028,135.558306541,2.37351617587,0.0478284748217,0.719256059793,3.90504568777,0.0,0.0,0.0
